-0.3,-0.295977011,-0.291954023,-0.287931034,-0.283908046,-0.279885057,-0.275862069,-0.27183908,-0.267816092,-0.263793103,-0.259770115,-0.255747126,-0.251724138,-0.247701149,-0.243678161,-0.239655172,-0.235632184,-0.231609195,-0.227586207,-0.223563218,-0.21954023,-0.215517241,-0.211494253,-0.207471264,-0.203448276,-0.199425287,-0.195402299,-0.19137931,-0.187356322,-0.183333333,-0.179310345,-0.175287356,-0.171264368,-0.167241379,-0.163218391,-0.159195402,-0.155172414,-0.151149425,-0.147126437,-0.143103448,-0.13908046,-0.135057471,-0.131034483,-0.127011494,-0.122988506,-0.118965517,-0.114942529,-0.11091954,-0.106896552,-0.102873563,-0.098850575,-0.094827586,-0.090804598,-0.086781609,-0.082758621,-0.078735632,-0.074712644,-0.070689655,-0.066666667,-0.062643678,-0.05862069,-0.054597701,-0.050574713,-0.046551724,-0.042528736,-0.038505747,-0.034482759,-0.03045977,-0.026436782,-0.022413793,-0.018390805,-0.014367816,-0.010344828,-0.006321839,-0.002298851,0.001724138,0.005747126,0.009770115,0.013793103,0.017816092,0.02183908,0.025862069,0.029885057,0.033908046,0.037931034,0.041954023,0.045977011,0.05,0.054022989,0.058045977,0.062068966,0.066091954,0.070114943,0.074137931,0.07816092,0.082183908,0.086206897,0.090229885,0.094252874,0.098275862,0.102298851,0.106321839,0.110344828,0.114367816,0.118390805,0.122413793,0.126436782,0.13045977,0.134482759,0.138505747,0.142528736,0.146551724,0.150574713,0.154597701,0.15862069,0.162643678,0.166666667,0.170689655,0.174712644,0.178735632,0.182758621,0.186781609,0.190804598,0.194827586,0.198850575,0.202873563,0.206896552,0.21091954,0.214942529,0.218965517,0.222988506,0.227011494,0.231034483,0.235057471,0.23908046,0.243103448,0.247126437,0.251149425,0.255172414,0.259195402,0.263218391,0.267241379,0.271264368,0.275287356,0.279310345,0.283333333,0.287356322,0.29137931,0.295402299,0.299425287,0.303448276,0.307471264,0.311494253,0.315517241,0.31954023,0.323563218,0.327586207,0.331609195,0.335632184,0.339655172,0.343678161,0.347701149,0.351724138,0.355747126,0.359770115,0.363793103,0.367816092,0.37183908,0.375862069,0.379885057,0.383908046,0.387931034,0.391954023,0.395977011,0.4,0.5
37.94626737,37.30766441,37.37774338,38.56324422,40.90545963,44.06375944,47.43794833,50.37771937,52.37997136,53.21363198,52.94170378,51.86066536,50.39712878,48.99497089,47.99115129,47.51465678,47.41287752,47.25771638,46.44922881,44.40159541,40.72904549,35.39084652,28.69561882,21.17710367,13.41464131,5.883693292,-1.135953235,-7.542883869,-13.33364732,-18.53130467,-23.15464175,-27.20974358,-30.70032993,-33.64544425,-36.07251957,-37.9981035,-39.44541415,-40.49568381,-41.30259699,-42.08147272,-43.06379747,-44.38725004,-45.98634837,-47.60523008,-48.91652983,-49.68132385,-49.91380054,-49.93439672,-50.24528092,-51.28068757,-53.19050198,-55.74347548,-58.41971426,-60.64232269,-62.04924962,-62.65190079,-62.80341569,-63.01974643,-63.7565506,-65.23129026,-67.36863237,-69.89320005,-72.47724962,-74.83472312,-76.68616926,-77.56527156,-76.55172358,-72.09980633,-62.18529432,-44.91557988,-19.51630333,12.64560354,47.4919101,78.56169245,98.41431097,100.7409152,82.48407183,45.11991137,-5.438472548,-60.37314646,-110.3486841,-147.9037311,-169.0223225,-173.5029761,-164.2013834,-145.6101508,-122.4056973,-98.42305765,-76.20536924,-57.03586957,-41.30125101,-28.88417764,-19.46511762,-12.68414696,-8.209138675,-5.673810162,-4.625500341,-4.497282165,-4.673366753,-4.587442076,-3.887827575,-2.536702867,-0.793352121,0.967261569,2.45234183,3.644181118,4.84508686,6.538046371,9.113325891,12.66026921,16.86895168,21.13271502,24.8029596,27.47220203,29.11696652,30.07229687,30.83551559,31.81117963,33.11462195,34.53672352,35.65766189,36.05178487,35.4724846,33.94614301,31.74204608,29.25939106,26.89275067,24.93820202,23.56406029,22.8225096,22.67497378,22.99854894,23.58431475,24.14571226,24.37119191,23.9929293,22.87706342,21.06938865,18.75177892,16.13604592,13.36577574,10.42334883,7.112240021,3.15528975,-1.670524476,-7.424692627,-13.89958492,-20.59216167,-26.78770817,-31.7157848,-34.72407453,-35.46937013,-34.03186127,-30.89941575,-26.81241076,-22.55196494,-18.7258178,-15.63383749,-13.25925251,-11.38428201,-9.725416883,-8.038627328,-6.175718555,-4.091719141,-1.802200002,0.620865222,3.040301244,5.264408158,7.100723706,8.402054106,9.149539284,9.495650813,9.729250355,10.16900991,11.06843572,1
32.37631612,31.14591135,29.0292646,26.46815814,23.94808481,21.82236908,20.21372545,19.01111829,17.95596567,16.76333786,15.22695266,13.27348244,10.95726725,8.411568168,5.800150816,3.278304244,0.972960123,-1.0258337,-2.656677489,-3.893943838,-4.757666487,-5.31699192,-5.677619607,-5.962011235,-6.28182061,-6.706523042,-7.258610638,-7.928552661,-8.700205147,-9.553846442,-10.47054902,-11.41263637,-12.2940819,-12.96834756,-13.26686622,-13.04025141,-12.20633099,-10.7980802,-8.976322017,-6.98465077,-5.091781495,-3.531076751,-2.445102457,-1.855756677,-1.688086732,-1.816127758,-2.107145982,-2.457339877,-2.818228791,-3.185810229,-3.582154172,-4.055872987,-4.680802848,-5.542462625,-6.728802925,-8.30069586,-10.247924,-12.46947538,-14.79497123,-17.02983427,-19.03816118,-20.80996965,-22.48932662,-24.31566582,-26.47786955,-28.87227973,-30.85593771,-31.08408102,-27.60141066,-18.28936835,-1.652422795,22.24137883,51.03339045,79.98934887,102.7989096,113.1515395,106.681425,82.56301723,44.09425048,-2.010150053,-47.39132357,-84.28749629,-107.4512364,-115.123335,-108.8773147,-92.57518854,-70.94590309,-48.30521658,-27.76636115,-11.02250782,1.448799829,9.991198687,15.37225484,18.49351496,20.22443797,21.29876017,22.25213005,23.3860006,24.75598703,26.20896263,27.47273747,28.26053334,28.36447375,27.72321428,26.41641425,24.63134847,22.61089625,20.60785346,18.83491646,17.46192503,16.59835235,16.29171882,16.51780928,17.19616275,18.19092202,19.34070437,20.4809623,21.48380099,22.27886306,22.87476456,23.35379939,23.85137157,24.50283515,25.39419269,26.51573602,27.74720086,28.88728793,29.7258938,30.11642705,30.02994176,29.56527409,28.90202977,28.22503928,27.65589018,27.2286261,26.90666618,26.63609943,26.38553712,26.16439076,25.98833632,25.82853951,25.56560739,24.99184258,23.84985963,21.90301603,19.00186855,15.12206059,10.36760583,4.945155067,-0.863597649,-6.731091736,-12.30168065,-17.23173759,-21.23860184,-24.16504857,-26.02135346,-26.99864003,-27.40733312,-27.57599807,-27.73395256,-27.93653032,-28.05024595,-27.83164966,-27.03932902,-25.55508721,-23.45070588,-20.98931615,-18.54718933,-16.52123645,-15.22392626,-14.82409864,-15.32602675,-16.59003355,-18.36504955,-20.35100576,1
-16.2314154,-15.43443838,-14.60442359,-13.72614784,-12.79873227,-11.84793454,-10.93689566,-10.14545448,-9.531792847,-9.093747942,-8.751364805,-8.350168926,-7.713586194,-6.710801649,-5.316253784,-3.62102705,-1.810779061,-0.102623994,1.320333031,2.3596297,3.002223198,3.295856901,3.315240882,3.129001166,2.779149091,2.283709738,1.650829233,0.885943119,0.006513163,-0.941678794,-1.873766557,-2.663106168,-3.150148628,-3.168802312,-2.594857476,-1.386971457,0.380839474,2.523253715,4.772593721,6.843052292,8.492154309,9.57450552,10.0501296,9.969729671,9.438040454,8.572128125,7.471628268,6.224868181,4.912668174,3.59672038,2.312246136,1.054862822,-0.236577908,-1.651504331,-3.242568197,-4.971276855,-6.677127454,-8.085994288,-8.894465541,-8.882087402,-8.009261096,-6.474537855,-4.701991297,-3.228006282,-2.523232397,-2.761429236,-3.583104211,-3.961528444,-2.287381297,3.260465564,14.06090782,30.26215483,50.17603943,70.17747849,85.32135744,90.60618618,82.54278299,60.44977075,26.98012087,-12.40431885,-50.83316622,-81.83941426,-100.9292295,-106.4629697,-99.61586075,-83.60848112,-62.5625701,-40.43570154,-20.26962645,-3.886111653,8.060104185,15.79394317,20.08006896,21.89543622,22.18251171,21.68421536,20.88727968,20.03204928,19.18325287,18.3228582,17.43923466,16.56318941,15.7687445,15.14225489,14.74237518,14.56747575,14.5572151,14.61455733,14.63636392,14.53986369,14.28519982,13.8784169,13.35067198,12.73213526,12.03756845,11.25239013,10.33528043,9.256715419,8.04349246,6.802480114,5.72536908,5.063636324,5.058560081,5.864853161,7.493164989,9.789239432,12.45334069,15.10502108,17.36302372,18.92345753,19.61418751,19.41859382,18.46058235,16.96426738,15.1954127,13.39879156,11.7416376,10.28723271,8.997880939,7.766104181,6.46370769,4.993270787,3.31004812,1.408932486,-0.705899126,-3.053698025,-5.681355517,-8.629286502,-11.86849598,-15.25404054,-18.52268642,-21.35773474,-23.49201391,-24.80648698,-25.37419537,-25.4204262,-25.21652239,-24.96246852,-24.71251031,-24.37321286,-23.78267801,-22.81924687,-21.48450351,-19.92212869,-18.37138122,-17.06681695,-16.14312886,-15.58312852,-15.23405359,-14.86870144,-14.27087542,-13.30484333,-11.94412809,-10.24618411,-8.315846748,1
1.296849156,0.796413056,0.530863117,0.571224248,0.948263427,1.641193732,2.574405769,3.647291936,4.751516193,5.786016124,6.66851342,7.33734356,7.74647877,7.871043475,7.71362274,7.306848337,6.720480574,6.054512547,5.417281409,4.890388945,4.504360165,4.222490556,3.943132286,3.536140949,2.898643968,1.995169869,0.872877144,-0.344716733,-1.504294137,-2.480745671,-3.215326494,-3.725969777,-4.090317728,-4.400933657,-4.708798232,-4.989094898,-5.134297587,-4.987038212,-4.40706301,-3.356670514,-1.958684758,-0.501204736,0.627919851,1.065414805,0.60599722,-0.704701534,-2.573990172,-4.569110061,-6.277810221,-7.450425823,-8.08371281,-8.393056179,-8.689631873,-9.250243307,-10.23069379,-11.63572909,-13.3609448,-15.27757907,-17.28055055,-19.2958237,-21.26927788,-23.15240997,-24.89521423,-26.47724916,-27.9112038,-29.17207255,-30.04253139,-29.94232498,-27.82884346,-22.36098149,-12.37629874,2.401002421,20.70551945,39.45137807,54.16087684,60.08201263,53.70115142,34.07612564,3.460060818,-33.12414625,-69.2076353,-98.63205859,-117.0890879,-122.9536579,-117.2241665,-102.7494705,-83.1446081,-61.81050936,-41.31882452,-23.19878697,-8.067758385,4.089369688,13.62531476,20.99920274,26.60535882,30.70824003,33.43371453,34.80977636,34.84129009,33.60940319,31.33049945,28.37211816,25.21799141,22.38849445,20.33151431,19.33921635,19.50478928,20.72554059,22.74736124,25.23872522,27.86427188,30.35487562,32.54965587,34.40395084,35.96958633,37.35232368,38.63914787,39.84409773,40.90326856,41.70749863,42.15766259,42.23327325,42.03014306,41.72214374,41.48703973,41.4338264,41.55517647,41.71746359,41.71895098,41.35390188,40.45720115,38.93197296,36.76571969,34.02025517,30.83352294,27.41914138,24.03583442,20.93014176,18.27862786,16.13779845,14.43714487,13.02059696,11.72540962,10.44532028,9.154999706,7.877881933,6.636200158,5.386203659,4.001109557,2.309287252,0.173551692,-2.446525936,-5.445067206,-8.580909653,-11.54666744,-14.0660904,-15.97015984,-17.24334737,-18.00524784,-18.43069758,-18.64863592,-18.67318357,-18.39048586,-17.62219655,-16.23942752,-14.26520762,-11.89484378,-9.440928674,-7.212642844,-5.40136216,-4.01931585,-2.941282684,-1.980397625,-0.977554358,0.172378575,1
17.72326523,18.46746833,18.74000528,18.69712279,18.45293636,18.0500715,17.48124267,16.71404546,15.75781549,14.70167025,13.69892065,12.9243043,12.55256581,12.69949442,13.37618005,14.46238681,15.71546654,16.80092172,17.37770029,17.19513325,16.18343759,14.47021477,12.33619779,10.12017702,8.113963383,6.469441702,5.185648479,4.150912839,3.206944881,2.216442187,1.118866019,-0.061050108,-1.247903683,-2.351609266,-3.314611,-4.143937932,-4.917551361,-5.731062111,-6.649054715,-7.650080816,-8.618495305,-9.379732438,-9.804714699,-9.892580756,-9.815010719,-9.863487178,-10.32834658,-11.34957656,-12.83860642,-14.49585922,-15.94745692,-16.9205675,-17.36991493,-17.4698475,-17.50123036,-17.66542103,-17.95623923,-18.14949168,-17.94547041,-17.15440559,-15.85800298,-14.42340116,-13.38369593,-13.20447299,-14.06030333,-15.66660652,-17.23411772,-17.52699543,-15.06369809,-8.454492088,3.121288182,19.37869983,38.49577583,57.05977947,70.57083812,74.49624509,65.63190726,43.31754097,9.987303565,-29.20730305,-67.64062271,-98.90817891,-118.403408,-124.2443642,-117.3621995,-100.8055811,-78.64658129,-54.8951416,-32.73949372,-14.18799643,-0.119135528,9.459495092,15.09564965,17.61650142,17.90880692,16.78451649,14.89248137,12.67525314,10.37031081,8.057301651,5.731941423,3.376597767,0.99589787,-1.374599611,-3.696206265,-5.95944566,-8.188509431,-10.40987346,-12.62848977,-14.7937922,-16.8067487,-18.56591788,-20.0249397,-21.21265178,-22.23478902,-23.2264866,-24.28535734,-25.42766782,-26.58770329,-27.64823589,-28.48787107,-29.01673306,-29.17500019,-28.90822587,-28.13222229,-26.72040567,-24.52506531,-21.43595976,-17.43447719,-12.62620646,-7.24016101,-1.595845687,3.95997749,9.099054795,13.53414179,17.04133037,19.48261804,20.82129676,21.13788501,20.63536561,19.59447288,18.29143926,16.90904933,15.48748605,13.9206683,12.02366602,9.636049137,6.708894663,3.32824046,-0.312928147,-3.987739506,-7.506392934,-10.74674068,-13.64341543,-16.14937656,-18.20314913,-19.72826697,-20.66023631,-20.97830488,-20.72656172,-20.00172814,-18.91001446,-17.52602829,-15.87004268,-13.92749827,-11.69019692,-9.206782726,-6.611057414,-4.107120252,-1.905474437,-0.156639588,1.101711065,1.968142084,2.633581867,3.306914374,1
8.004398665,9.527509503,11.05367205,12.5238887,13.87173859,14.98015178,15.68647665,15.82805086,15.31770327,14.20052732,12.68841016,11.11952223,9.868306144,9.238020049,9.373450806,10.22941215,11.60076449,13.19723597,14.7214011,15.94157579,16.72391128,17.03726787,16.92871512,16.49734084,15.85452301,15.08627518,14.23368939,13.29245267,12.23853964,11.07801802,9.909761603,8.947119072,8.508069953,8.942948254,10.52732822,13.34654677,17.23679959,21.7811837,26.39320766,30.4602181,33.50139267,35.27929036,35.85149416,35.52513563,34.72735621,33.85812501,33.17365584,32.71573117,32.33351223,31.78327458,30.8332358,29.34834729,27.34415662,24.96569648,22.41651461,19.89163389,17.52354395,15.34954588,13.3267971,11.37754051,9.423060381,7.403191506,5.277474958,3.01014284,0.553901025,-2.10683807,-4.855112984,-7.304363138,-8.698811934,-7.945106659,-3.888863326,4.192410272,16.00629462,29.82132216,42.47457152,49.9733041,48.57564197,36.03372302,12.5469626,-18.99219995,-53.60618544,-85.48815244,-109.477235,-122.2682884,-122.9819531,-113.0034361,-95.27354866,-73.35935509,-50.61151998,-29.61354607,-11.97743329,1.589532355,11.07396504,16.89204095,19.65513723,19.99550307,18.45641472,15.44342717,11.25571854,6.151331723,0.417183559,-5.583378296,-11.40655419,-16.59623365,-20.78175517,-23.7452487,-25.44645266,-25.99687876,-25.58048494,-24.35805451,-22.43013554,-19.84263679,-16.62952341,-12.86621824,-8.720970278,-4.446458582,-0.332305278,3.364162965,6.466795054,8.925454054,10.81343718,12.28505299,13.51395802,14.65262192,15.78528148,16.91367939,17.96973921,18.8473116,19.42477231,19.59845129,19.30316661,18.5265047,17.30777053,15.73375814,13.9255266,12.01561128,10.11858116,8.313779076,6.636991248,5.079602416,3.602590537,2.163319054,0.733684737,-0.693963326,-2.105551873,-3.472381535,-4.77525544,-6.021623535,-7.240869015,-8.478145101,-9.775864974,-11.13952134,-12.51728278,-13.81333557,-14.90415722,-15.6740917,-16.06126649,-16.0842532,-15.8292339,-15.42783749,-15.01636303,-14.68855457,-14.46111391,-14.27652108,-14.02355928,-13.57512813,-12.82960674,-11.75093444,-10.37548831,-8.795094512,-7.128880669,-5.490319737,-3.947814917,-2.516830188,-1.1764173,1
1.424935428,2.767293642,4.147048527,5.550475066,6.946748162,8.285311947,9.523172416,10.62213889,11.54498766,12.26701281,12.79102299,13.12022563,13.26110977,13.22176782,13.00051398,12.58256899,11.96974926,11.18150136,10.25519403,9.248044292,8.222315752,7.225484717,6.289505145,5.432630918,4.662644431,3.98790323,3.415810741,2.953100611,2.610793052,2.411740832,2.392248927,2.60342049,3.086150274,3.835595158,4.765582003,5.705633967,6.425619125,6.70445991,6.403898256,5.53058688,4.234256218,2.765261394,1.385694045,0.285401915,-0.477601382,-0.97329914,-1.361278251,-1.818531007,-2.474499679,-3.375972173,-4.484330035,-5.700212892,-6.905887275,-8.004547937,-8.931627188,-9.664552716,-10.20736692,-10.5709497,-10.76112869,-10.79770081,-10.71969803,-10.60379557,-10.56887672,-10.74392944,-11.18099641,-11.76251262,-12.10478464,-11.50512204,-8.999875632,-3.587465025,5.403670145,17.88239889,32.62769723,47.18907803,58.2115813,62.19957179,56.50430314,40.2707591,14.95563927,-15.82143068,-47.10086885,-73.77560173,-91.81684073,-99.10693829,-95.66371874,-83.27333584,-64.77009281,-43.23219138,-21.34931836,-1.100670506,16.29441232,30.24353517,40.60541098,47.52864737,51.37656705,52.66977044,52.04724998,50.19239476,47.75884455,45.27028866,43.07067009,41.30706519,39.96702257,38.93051101,38.04259044,37.16723445,36.22215761,35.18561615,34.08767187,32.98652231,31.92921892,30.92311047,29.92424005,28.84744501,27.59082729,26.08205643,24.31648274,22.36594941,20.3666396,18.48356509,16.86756264,15.60942436,14.73225754,14.19323389,13.91486803,13.80863685,13.80694091,13.86683602,13.96957972,14.09991512,14.23775908,14.34786889,14.38041334,14.27585755,13.98306765,13.46847417,12.72506237,11.77690492,10.67522027,9.473394549,8.204177175,6.857645966,5.370124908,3.642404541,1.581545204,-0.84950977,-3.598298738,-6.509416044,-9.367390568,-11.9518213,-14.11244029,-15.80832829,-17.12467392,-18.22455913,-19.29677656,-20.47198327,-21.78072431,-23.1279284,-24.32436,-25.12945265,-25.33554192,-24.81868369,-23.58459827,-21.76915069,-19.61510408,-17.40770683,-15.42873166,-13.90209947,-12.96409992,-12.65501285,-12.94198621,-13.73247876,-14.90664499,-16.35015337,-17.97621057,1
-16.35015337,-17.97621057,-19.72397693,-21.56649133,-23.49218341,-25.48023431,-27.48405057,-29.43123045,-31.21720408,-32.72338333,-33.83972697,-34.47947037,-34.59188068,-34.17664872,-33.28855586,-32.02569717,-30.52092559,-28.91858122,-27.34627221,-25.88401212,-24.56032492,-23.34883219,-22.18756271,-21.0049818,-19.74732801,-18.38434947,-16.91430365,-15.34914812,-13.70078816,-11.97238773,-10.15678219,-8.235112865,-6.190084388,-4.014358189,-1.717763819,0.659513706,3.03725731,5.296647146,7.291384567,8.873314935,9.930448469,10.41321969,10.35689627,9.873614829,9.119839278,8.24994256,7.385856761,6.581482288,5.823222381,5.055987153,4.223763327,3.299741919,2.324960234,1.412547012,0.718059852,0.394167736,0.548450722,1.199120184,2.268163282,3.610306996,5.050823081,6.414958256,7.550107132,8.331212568,8.692483744,8.702781172,8.687818753,9.335023692,11.69246714,16.93942575,25.93794666,38.64753883,53.64583775,68.02123182,77.8401889,79.13013702,69.12160215,47.30366139,15.88263524,-20.59229987,-56.32117734,-85.69194957,-104.5894944,-111.1988475,-106.0934379,-91.71198875,-71.51055029,-49.07973522,-27.44522793,-8.698932014,6.062374965,16.60186386,23.28754693,26.80744964,27.93967247,27.40239732,25.76854827,23.4542316,20.75279656,17.87568412,14.98244708,12.20564085,9.661265926,7.439188051,5.588662365,4.114517048,2.97066198,2.056012396,1.241575437,0.409396398,-0.518554324,-1.555514913,-2.634824726,-3.638607626,-4.433429924,-4.902533537,-4.973644892,-4.633494027,-3.910397653,-2.864097228,-1.577226695,-0.136827542,1.37529107,2.884177698,4.337449011,5.718327338,7.034654342,8.309432366,9.558496615,10.76339192,11.86046929,12.75532079,13.34151667,13.53782035,13.31222693,12.68231054,11.69961759,10.42518875,8.905362327,7.162088066,5.203161702,3.031067819,0.664713982,-1.863599776,-4.5045683,-7.202895396,-9.895736765,-12.52858456,-15.04378023,-17.39257182,-19.53871079,-21.46145999,-23.13920137,-24.54786343,-25.64216545,-26.34520258,-26.56163793,-26.21149715,-25.25429519,-23.71491169,-21.69166891,-19.33974319,-16.82801016,-14.3057301,-11.87673451,-9.592430448,-7.45510662,-5.448023689,-3.562574375,-1.808914417,-0.216412007,1.177272935,2.346870019,3.304238418,4.097163842,1
1.177272935,2.346870019,3.304238418,4.097163842,4.801783787,5.491730275,6.221146826,7.008548656,7.845473433,8.705156696,9.571083342,10.43904525,11.30496092,12.14143397,12.88646737,13.4320496,13.63687673,13.36614317,12.53071284,11.11452634,9.182190375,6.874303819,4.370149756,1.84909893,-0.550195147,-2.74414483,-4.719976369,-6.523476872,-8.233879783,-9.926267462,-11.6435273,-13.36037656,-14.9670348,-16.28265062,-17.08939134,-17.192093,-16.48045955,-14.9758915,-12.82817903,-10.28004477,-7.584876215,-4.934636035,-2.408252512,0.020701861,2.445932076,4.957097257,7.585704692,10.28620383,12.95762862,15.47826566,17.7492242,19.72586974,21.40600638,22.80963486,23.95827874,24.85691914,25.47826045,25.78301708,25.73577983,25.31668536,24.51839698,23.34509876,21.785803,19.79603001,17.31156823,14.33259931,11.04745583,7.981342064,6.089596824,6.676087973,11.05198715,19.98623782,33.10662033,48.48126004,62.69030991,71.505463,71.05473565,59.09261682,35.95463473,4.747124989,-29.33511252,-60.35395442,-83.14656493,-94.54677278,-93.92746356,-82.97890448,-64.91885149,-43.4967978,-22.11102806,-3.239974545,11.73389438,22.40026701,29.04504742,32.33781399,33.06240897,31.94648069,29.57929105,26.38193092,22.63309105,18.5235233,14.21579369,9.890118994,5.786552987,2.210534097,-0.500592752,-2.035912415,-2.171364466,-0.822002887,1.935474722,5.872015833,10.64237087,15.83818861,21.03161525,25.81019132,29.81977193,32.79290322,34.56090271,35.06724203,34.36992155,32.60616493,29.96329833,26.65230587,22.88254897,18.83926898,14.69308534,10.59918051,6.692374103,3.084406423,-0.132126529,-2.89341717,-5.168026298,-6.949246447,-8.253340871,-9.11662732,-9.591978369,-9.738154441,-9.61072192,-9.252277815,-8.687193591,-7.918179362,-6.937226242,-5.748791222,-4.381271402,-2.904385699,-1.428791936,-0.091852288,0.971430395,1.643133401,1.859368342,1.617956773,0.978668155,0.048019251,-1.033105167,-2.139758075,-3.185295505,-4.140307049,-5.030295603,-5.925158047,-6.885767346,-7.942144991,-9.074844492,-10.22054462,-11.28545116,-12.18892079,-12.86875423,-13.29347678,-13.45596105,-13.37019701,-13.0579163,-12.56225733,-11.940918,-11.26801409,-10.62100899,-10.07102171,-9.665085519,1
-9.427986848,-9.362273465,-9.463442239,-9.72194512,-10.12853017,-10.66943457,-11.32222683,-12.04461041,-12.78365275,-13.47405243,-14.04612411,-14.4310978,-14.57478762,-14.43683555,-14.01017626,-13.32201489,-12.44107803,-11.46100716,-10.49233594,-9.628635606,-8.933127667,-8.417522558,-8.056313721,-7.78633924,-7.534440287,-7.233414961,-6.842192127,-6.337556453,-5.727788731,-5.034743174,-4.279953347,-3.471035971,-2.605693527,-1.660777096,-0.62230381,0.490219238,1.602799446,2.594778415,3.310397366,3.616133448,3.443800093,2.826151403,1.880220448,0.775296997,-0.32975004,-1.330983069,-2.211425729,-3.021199111,-3.845925668,-4.762905457,-5.809642434,-6.964619312,-8.155314216,-9.274738188,-10.21000968,-10.86387988,-11.17344896,-11.12009874,-10.72850327,-10.0559035,-9.194170688,-8.266765598,-7.429824593,-6.868211819,-6.74607201,-7.097154874,-7.689363282,-7.893733927,-6.652140859,-2.677049569,5.110736674,16.99788075,31.92951118,47.28053226,59.19864592,63.51380823,56.98799953,38.50095529,9.702704306,-25.17110422,-60.29688493,-89.74027162,-108.9146299,-115.5621933,-110.0049085,-94.68109879,-73.23799357,-49.53554364,-26.84156002,-7.375616446,7.77232758,18.45961951,25.17572174,28.72020284,29.93848959,29.56933257,28.17606043,26.15889124,23.78301701,21.2317116,18.63385073,16.08996548,13.67349223,11.44667949,9.454024389,7.729724979,6.300786727,5.195217277,4.439216164,4.063395732,4.098320223,4.557590563,5.422869684,6.635828588,8.09906418,9.686725401,11.28144829,12.80478708,14.22892636,15.57059405,16.87926392,18.1976858,19.52964917,20.83811339,22.05877542,23.11340015,23.94075012,24.52146823,24.87520432,25.04563907,25.08599179,25.03847578,24.91526831,24.6998291,24.35363556,23.82831164,23.07762946,22.07711651,20.82335172,19.33519697,17.64532304,15.79137085,13.79648316,11.66690005,9.394085293,6.962918334,4.366635828,1.622047987,-1.217354339,-4.068626561,-6.827079388,-9.387030523,-11.65197258,-13.55595283,-15.0621374,-16.15844798,-16.84606268,-17.13691832,-17.04383621,-16.58083828,-15.77798458,-14.68619364,-13.38204473,-11.96216387,-10.53835584,-9.207514792,-8.041519622,-7.07455416,-6.309820077,-5.719683348,-5.266771584,-4.907765038,-4.595987489,-4.282135538,-3.921794657,1
-1.553110486,-0.75317587,0.119810343,1.088502913,2.18914765,3.431258126,4.784430688,6.176711218,7.506225196,8.674264383,9.623800846,10.34768727,10.87786935,11.26625333,11.54516798,11.71576803,11.74671283,11.5940366,11.21829912,10.61599967,9.815959927,8.882257209,7.894193982,6.92427486,6.009408737,5.143846437,4.272226991,3.30608129,2.162083388,0.807203879,-0.711937431,-2.256344736,-3.61250003,-4.547831937,-4.884224243,-4.55351566,-3.628530054,-2.308223093,-0.864785266,0.437781504,1.412386624,1.990720352,2.212953543,2.191611212,2.046954686,1.851220991,1.604770538,1.250692139,0.706526206,-0.0823916,-1.106532026,-2.287206461,-3.489838161,-4.560807372,-5.378042093,-5.880255916,-6.076696874,-6.044421762,-5.897374731,-5.75413473,-5.72606647,-5.918054701,-6.44680759,-7.458397712,-9.096727029,-11.39741873,-14.12504458,-16.59051074,-17.56904466,-15.45618868,-8.721694842,3.415356123,20.28704429,39.37335779,56.50971757,66.78697167,65.93635118,51.75935744,25.08202068,-10.19895002,-48.04070247,-81.83242899,-106.0745913,-117.6280987,-116.1773911,-103.8562424,-84.31235298,-61.60115279,-39.26582831,-19.77933749,-4.416182871,6.580581325,13.66025802,17.63007392,19.37272812,19.67747804,19.14502297,18.19263337,17.074147,15.92381199,14.79222085,13.69735574,12.63316524,11.59311038,10.57685516,9.599214285,8.673364595,7.820530302,7.06060512,6.410838741,5.881478883,5.482691039,5.214451587,5.069071434,5.036448927,5.105405018,5.271273287,5.54406274,5.937929388,6.45718975,7.092274249,7.80782336,8.542008549,9.237819096,9.864891775,10.42078794,10.92983305,11.43100589,11.93730339,12.41790975,12.81460894,13.06394292,13.11782055,12.96918811,12.65051995,12.20086494,11.63375991,10.92701474,10.02492686,8.859727908,7.385692142,5.603729382,3.552581866,1.290270824,-1.123243653,-3.64241359,-6.238273999,-8.8766589,-11.49469437,-14.00014866,-16.27709861,-18.20716258,-19.69562649,-20.69709926,-21.21869533,-21.31512318,-21.07121077,-20.59012974,-19.98178193,-19.34764714,-18.76749232,-18.28850804,-17.91263488,-17.59194636,-17.24992353,-16.80633036,-16.20548758,-15.43763139,-14.53487423,-13.54356846,-12.49874375,-11.40394182,-10.22175091,-8.899556215,-7.405337079,1
2.47612287,3.332245845,4.295830423,5.464705168,6.855835082,8.387553245,9.911412017,11.24793152,12.24680367,12.81781457,12.95714339,12.72617994,12.22826485,11.56298036,10.80609023,9.991756376,9.129599021,8.221085245,7.28916115,6.379654869,5.555534313,4.872564362,4.359906008,4.001726115,3.74870938,3.536194507,3.307903048,3.033207959,2.716825352,2.389470217,2.103670285,1.926917119,1.934122543,2.195033884,2.7649545,3.657352437,4.826676407,6.163217341,7.514568599,8.712246898,9.619940307,10.16545815,10.35379459,10.24861654,9.948213157,9.545090972,9.095983579,8.615252481,8.083933077,7.465543887,6.728250489,5.870340068,4.919759231,3.930356177,2.96906312,2.109441357,1.410152511,0.913999366,0.64810428,0.619234614,0.778872798,1.000899137,1.060469278,0.644804106,-0.54886218,-2.607804123,-5.165338704,-7.221992851,-7.151240029,-3.047788917,6.599753061,22.08819167,41.84399807,62.27052454,78.37225375,85.04970135,78.68713979,58.48587267,27.00733483,-10.37011335,-46.8882678,-76.21629285,-94.03623454,-98.89593402,-92.12519208,-76.99243286,-57.53899407,-37.49461965,-19.56773203,-5.208223006,5.227620598,12.12389916,16.22809133,18.34952426,19.17036511,19.18672546,18.7163236,17.94275333,16.96957023,15.87610363,14.74122978,13.64954685,12.67585979,11.87435345,11.26124049,10.81300029,10.47927921,10.21161041,9.971259454,9.748720059,9.561478205,9.444064343,9.423535497,9.519716089,9.724693843,10.01451673,10.35131664,10.70422557,11.05292724,11.40662072,11.79100003,12.24979246,12.82227463,13.5228934,14.32378941,15.16114985,15.94063345,16.56419613,16.96551298,17.12293289,17.05245086,16.78750604,16.35060556,15.72188382,14.84051343,13.62741059,12.02033446,10.00231935,7.618176471,4.960371009,2.144370328,-0.721757842,-3.560129083,-6.327856552,-8.99923494,-11.56078086,-13.99764999,-16.27575494,-18.33894406,-20.12530723,-21.56623956,-22.60290423,-23.21613782,-23.44031044,-23.35971809,-23.10211011,-22.80795069,-22.58658473,-22.48898443,-22.49355949,-22.50765563,-22.40200414,-22.05471419,-21.3884574,-20.39475823,-19.14420965,-17.75564673,-16.35513728,-15.03275658,-13.81627521,-12.66333971,-11.48974462,-10.21475714,-8.803687748,-7.291989437,1
-6.165480591,-6.422258125,-6.624348402,-6.728146864,-6.679319677,-6.424966403,-5.930632128,-5.195462387,-4.263705259,-3.224652656,-2.199661472,-1.309906204,-0.65919418,-0.312635916,-0.286388172,-0.542016952,-1.007450132,-1.575248063,-2.12692289,-2.549130102,-2.755737279,-2.685966036,-2.323096887,-1.683247986,-0.813634276,0.210505454,1.287006692,2.313855771,3.212701061,3.962507745,4.628700438,5.359197546,6.337136154,7.705939007,9.498845068,11.59746017,13.74618405,15.62248464,16.94622646,17.55820243,17.45712164,16.78291319,15.7459786,14.53368205,13.25806508,11.93660359,10.51118357,8.909231762,7.099819294,5.120888368,3.073798661,1.094444995,-0.697127767,-2.230620133,-3.496397535,-4.517854811,-5.31947192,-5.903895186,-6.246750137,-6.327726472,-6.190023036,-5.9774435,-5.926522915,-6.30901982,-7.290371336,-8.740857986,-10.07547487,-10.20203846,-7.656518556,-1.008270988,10.53468844,26.49923404,44.74988942,61.57164632,72.38961503,72.97191286,60.7656944,35.91143492,1.520435791,-36.96427747,-73.09603244,-101.0157903,-116.8008995,-119.1725,-109.4094904,-90.65084631,-66.88636266,-41.98639161,-18.99918071,0.163106655,14.71255516,24.74911263,30.93388651,34.16733703,35.34708448,35.2154334,34.29932422,32.93052901,31.29572033,29.49746794,27.60647942,25.69557181,23.84065783,22.11995119,20.59996642,19.32032458,18.27756946,17.42897093,16.69577846,15.9831613,15.20696344,14.32309597,13.33405701,12.28969446,11.2743325,10.38287766,9.693907892,9.262536231,9.11596266,9.249765358,9.634339312,10.22213225,10.94279906,11.70695386,12.41507252,12.96504136,13.26635163,13.25752867,12.91300883,12.24318134,11.28655032,10.09360941,8.713434039,7.179257367,5.510182578,3.717385395,1.815667773,-0.171649917,-2.199263844,-4.212217354,-6.153330071,-7.981869243,-9.681671779,-11.27118968,-12.78964202,-14.28671582,-15.79209269,-17.29500493,-18.73594935,-20.01693729,-21.02117528,-21.65327217,-21.8713254,-21.70064465,-21.22439528,-20.55373024,-19.7849467,-18.9667287,-18.08121695,-17.05568015,-15.79768633,-14.23484738,-12.3488577,-10.19699618,-7.908550478,-5.656442676,-3.623197837,-1.95440499,-0.728058153,0.064558128,0.513159485,0.769216506,0.997133828,1.338486187,1.882248403,1
3.667305095,3.408969301,3.121214623,2.798618284,2.439997672,2.027370097,1.531001798,0.916936473,0.155716814,-0.751015643,-1.750760427,-2.752278405,-3.645578808,-4.334536493,-4.769778348,-4.964317485,-4.978371839,-4.885572708,-4.737336493,-4.548080077,-4.300007828,-3.967376604,-3.554958421,-3.115563228,-2.734838902,-2.502185369,-2.474718445,-2.646168102,-2.939228838,-3.230889453,-3.379080498,-3.25351679,-2.762384837,-1.875650024,-0.629225246,0.865014454,2.430173216,3.867496109,5.015797534,5.805933973,6.30141037,6.683786612,7.167995206,7.903133287,8.8854375,9.926478711,10.70008133,10.86111044,10.15798078,8.516616551,6.053531042,3.023514702,-0.276455043,-3.586043501,-6.731735402,-9.634785246,-12.28457162,-14.69332045,-16.85668037,-18.73408922,-20.2462645,-21.30106672,-21.82875722,-21.81310359,-21.27669063,-20.21072328,-18.44653528,-15.5395132,-10.74332728,-3.185095012,7.745792234,21.87870186,37.81873795,52.82307594,63.20347729,65.22101071,56.23541399,35.72526138,5.773507853,-29.2415665,-63.66016635,-91.92703933,-109.9008908,-115.6941875,-109.8111563,-94.65820254,-73.68960647,-50.50422741,-28.12497499,-8.614377343,6.974186935,18.43047754,26.11621648,30.68236038,32.84189085,33.24608419,32.4169269,30.74646587,28.52345178,25.97607356,23.28418925,20.60048767,18.04482009,15.69973059,13.60178619,11.75665235,10.14715902,8.754672073,7.570235929,6.605723756,5.885782251,5.43530901,5.267027257,5.380440792,5.754551889,6.357565724,7.156220625,8.115869663,9.193456131,10.34107071,11.49945001,12.60358632,13.59550113,14.43984319,15.13086811,15.69838311,16.20120556,16.71359447,17.30352064,18.01255461,18.83876036,19.72984719,20.58688375,21.28653417,21.71100495,21.77357937,21.43074937,20.68458924,19.56588307,18.10711956,16.3303231,14.2471076,11.8665499,9.212600497,6.342201591,3.342151119,0.321113503,-2.607981206,-5.349276158,-7.839108996,-10.04652472,-11.97478949,-13.64871934,-15.09852336,-16.34596169,-17.39557335,-18.22576821,-18.79686715,-19.06236854,-18.98506086,-18.55261109,-17.78655939,-16.73913944,-15.4839892,-14.09694865,-12.63618866,-11.13401404,-9.596064404,-8.009129185,-6.362312558,-4.663711079,-2.950035571,-1.283654504,0.256936697,1.603077186,1
1.968452198,1.696235419,1.426305859,1.117374505,0.737764024,0.277007723,-0.24732094,-0.789405107,-1.287913353,-1.682307939,-1.92212245,-1.97823941,-1.853038412,-1.568205764,-1.149960803,-0.627572293,-0.027226489,0.635404244,1.342223256,2.066016618,2.774369984,3.429845827,3.988805886,4.41171409,4.662278088,4.706686578,4.519377383,4.087449017,3.414438071,2.536837731,1.528696077,0.495918537,-0.435776146,-1.14251323,-1.545471342,-1.633709359,-1.474213899,-1.193805025,-0.944241368,-0.839986177,-0.923749615,-1.152771769,-1.424434048,-1.620787393,-1.66986838,-1.577740438,-1.430536185,-1.366167596,-1.530760667,-2.028695734,-2.890824958,-4.071065327,-5.463904324,-6.932239583,-8.341343214,-9.589618735,-10.62072633,-11.42005291,-12.00848187,-12.43834771,-12.79010199,-13.17595595,-13.7423573,-14.6449263,-15.9660399,-17.58835481,-19.05993763,-19.51319887,-17.73095552,-12.46012352,-2.931732946,10.56429468,26.26717222,40.94742194,50.50965105,51.08293753,40.26079672,18.08006956,-12.66349433,-46.97091042,-78.88122948,-102.9629922,-115.5918718,-115.6308,-104.3507341,-84.7548093,-60.62123492,-35.58826191,-12.49910062,6.878943922,21.82636469,32.4459779,39.36864644,43.45457822,45.57269147,46.45285033,46.61195508,46.33608703,45.72680044,44.76145013,43.37366034,41.52439512,39.25470048,36.69832736,34.07101279,31.62114757,29.57164258,28.0676622,27.14015166,26.69916709,26.56341804,26.51104271,26.33629223,25.90434152,25.17475232,24.19918581,23.09712158,22.0113458,21.06349036,20.33101854,19.84181328,19.57910092,19.50461561,19.58000972,19.77430952,20.05770256,20.39467414,20.73735297,21.01828034,21.16214573,21.10834353,20.83018628,20.33702014,19.68067897,18.93895837,18.18743943,17.47702409,16.82571008,16.20690692,15.55204708,14.77150203,13.76462238,12.43945875,10.73265344,8.625201713,6.135666257,3.329951273,0.302191029,-2.842979355,-6.002722019,-9.072307829,-11.95734202,-14.56503615,-16.80144661,-18.58129922,-19.84445951,-20.56414711,-20.75336723,-20.46758038,-19.79349058,-18.83629701,-17.705454,-16.5137306,-15.36354652,-14.34271963,-13.51591689,-12.92037693,-12.55620155,-12.39699427,-12.3929604,-12.48473516,-12.61695308,-12.7453058,-12.83152605,-12.84573987,1
-2.67980934,-3.376760797,-4.356300253,-5.578050421,-6.998855954,-8.56343344,-10.19780955,-11.80678894,-13.27476053,-14.48890235,-15.37106853,-15.90388146,-16.13093149,-16.14387534,-16.05357973,-15.95613349,-15.90817313,-15.91988239,-15.95766508,-15.95610689,-15.83997593,-15.54011888,-15.01378053,-14.2636354,-13.34624623,-12.35962337,-11.43078519,-10.68551675,-10.20897376,-10.0162801,-10.04693467,-10.15832546,-10.14767659,-9.796621306,-8.92622762,-7.44048927,-5.372187963,-2.890185425,-0.26597075,2.196057848,4.233275192,5.694480508,6.572642811,6.983370044,7.10400441,7.102404354,7.080082325,7.045651803,6.931132836,6.636809963,6.077587739,5.213380369,4.055990079,2.662353442,1.107749054,-0.527744048,-2.161189322,-3.703544242,-5.06458763,-6.157214741,-6.930407227,-7.415729973,-7.753322163,-8.175709468,-8.920644292,-10.05917192,-11.28242904,-11.74591456,-10.09645212,-4.791588095,5.307235548,20.21967285,38.27195355,56.00774577,68.7866139,71.97603622,62.38956406,39.49833481,5.897925679,-33.19828087,-71.27572871,-102.1760975,-121.5723491,-127.7929252,-121.815634,-106.5727912,-85.92542135,-63.65833197,-42.76359443,-25.12834164,-11.56818328,-2.073307238,3.870880443,6.99516097,8.05289499,7.710027063,6.510449247,4.890177315,3.203529285,1.73263257,0.693871948,0.229076351,0.383123156,1.081347202,2.136260455,3.270424146,4.172507451,4.577253098,4.36258422,3.609246827,2.623272375,1.88465946,1.94831507,3.294089261,6.20311329,10.66110221,16.35229148,22.71585216,29.08059541,34.8033983,39.40880319,42.66151418,44.57576326,45.35009004,45.27473388,44.63279212,43.63159234,42.3842368,40.93503501,39.30552875,37.53012789,35.67559214,33.82762823,32.05743782,30.39009642,28.78678877,27.15147763,25.35686851,23.2866132,20.86633124,18.09721084,15.0613315,11.91850099,8.889650187,6.236908488,4.220456776,3.069631295,2.943010581,3.886458371,5.812633256,8.512511037,11.6684579,14.90232161,17.83941326,20.15380705,21.59748944,22.02773152,21.39920717,19.7453877,17.16684948,13.80774882,9.832842881,5.415990706,0.729801982,-4.065588612,-8.808702145,-13.33810579,-17.49188049,-21.11657193,-24.08413519,-26.32924214,-27.85422056,-28.7275055,-29.06076059,-28.97431952,1
-7.939077371,-7.505044073,-7.286070298,-7.234654954,-7.311177674,-7.480565315,-7.701609673,-7.920274831,-8.071845151,-8.098529674,-7.967703304,-7.67812205,-7.262231285,-6.775564377,-6.271805017,-5.783096219,-5.322047284,-4.890981679,-4.48985188,-4.130951581,-3.835500119,-3.619618176,-3.471176485,-3.347321714,-3.186698681,-2.949654159,-2.6497674,-2.376337063,-2.277132174,-2.500421891,-3.109021512,-4.020322262,-4.997032131,-5.703089417,-5.814324619,-5.14425391,-3.725699429,-1.806998824,0.236089373,2.039002712,3.378596169,4.247283083,4.836680347,5.443342729,6.331191063,7.627075781,9.262676414,10.99482664,12.48725384,13.43883525,13.67148373,13.19622924,12.20976655,11.03214259,9.993780988,9.346808201,9.185526626,9.437382459,9.914380366,10.40216797,10.7347288,10.84435613,10.73958579,10.44299928,9.943990309,9.216037296,8.311210366,7.519646598,7.494955269,9.2153219,13.70379608,21.55205156,32.38329604,44.49754976,54.95475795,60.19420921,57.04010314,43.79057705,20.99699895,-8.408985281,-39.7357017,-67.68455184,-87.65292379,-96.78358625,-94.4677341,-82.19734629,-62.92704406,-40.21938545,-17.44151287,2.830222991,19.06862607,30.76591853,38.20688188,42.15980031,43.54677072,43.20564127,41.75704598,39.58431861,36.89407711,33.8172248,30.49416598,27.12461429,23.95487541,21.21805497,19.07194755,17.55239841,16.55253081,15.85813662,15.21555031,14.395718,13.23989909,11.69692121,9.81248715,7.701242693,5.515207821,3.426284633,1.588053309,0.124079589,-0.882092213,-1.395591924,-1.440724001,-1.081977862,-0.411916873,0.465430867,1.456633123,2.494005969,3.53927742,4.584804267,5.645233394,6.740993057,7.883942177,9.057291374,10.20262742,11.22293172,11.99922501,12.41370674,12.38197726,11.87665187,10.93806642,9.664658009,8.186918761,6.63268763,5.096618484,3.609460502,2.127371269,0.551719953,-1.240005728,-3.356974472,-5.84436348,-8.653821032,-11.64594983,-14.6077383,-17.2940275,-19.48966651,-21.05382644,-21.94644673,-22.24048817,-22.08926489,-21.67489282,-21.15254147,-20.60674378,-20.01974499,-19.29827961,-18.31412612,-16.96950318,-15.24430842,-13.22593033,-11.08073378,-9.010107118,-7.180363965,-5.675595397,-4.474366961,-3.474521937,-2.538776265,-1.559919565,1
-11.79191768,-11.91931814,-11.98089415,-12.02226382,-12.01337288,-11.84827463,-11.40018736,-10.59862447,-9.49157025,-8.25556402,-7.144300717,-6.382087806,-6.073412212,-6.165007814,-6.474665043,-6.77971147,-6.941125794,-6.970050863,-7.020529249,-7.322616095,-8.078694383,-9.347331785,-11.00844712,-12.79482906,-14.38433294,-15.51262573,-16.07285763,-16.13792919,-15.91960343,-15.66697297,-15.55351001,-15.60476262,-15.68581124,-15.56224289,-15.00053773,-13.87210499,-12.20157725,-10.16730954,-8.033011075,-6.06649783,-4.460481053,-3.309317452,-2.613147054,-2.317593143,-2.350265331,-2.646086433,-3.131618862,-3.720250902,-4.311302332,-4.794570008,-5.072361685,-5.093495739,-4.85200603,-4.369575024,-3.684365306,-2.829783202,-1.820908581,-0.670178911,0.58911033,1.888981004,3.113158198,4.086884392,4.593055493,4.427283682,3.502226049,1.995575922,0.522617713,0.229344179,2.680843569,9.478085391,21.63266681,38.85447955,59.0495147,78.36263,91.90167331,95.03288721,84.85364104,61.32800422,27.58430113,-10.77880316,-47.15526592,-75.64840854,-92.47321749,-96.60799395,-89.58184565,-74.63242128,-55.60051784,-35.97081933,-18.27048092,-3.900659821,6.728898425,13.87869429,18.16762941,20.31755997,20.99547879,20.72650012,19.88709696,18.71182558,17.31868264,15.74786683,14.00379379,12.08174169,10.00011831,7.815459939,5.622549686,3.535358256,1.669050946,0.108997508,-1.099971026,-1.961435408,-2.510234314,-2.800883258,-2.886143742,-2.803351889,-2.566015308,-2.172551382,-1.607439271,-0.851045852,0.100714848,1.230797605,2.50422157,3.86445723,5.247721854,6.604899613,7.904858027,9.132509787,10.28876456,11.36809878,12.33927104,13.14621715,13.71199775,13.95167771,13.79443242,13.20403569,12.181658,10.76187088,8.994896442,6.937333898,4.6379115,2.140592359,-0.50310915,-3.215445986,-5.894593432,-8.418036985,-10.67024418,-12.57296289,-14.1114844,-15.33256483,-16.32677997,-17.1907347,-17.9879084,-18.72109954,-19.33167615,-19.71966495,-19.76811471,-19.38207397,-18.51291581,-17.1684009,-15.40870274,-13.34039951,-11.08696848,-8.771094697,-6.498909301,-4.352630853,-2.389921005,-0.657843642,0.8047451,1.967267652,2.820445589,3.386205935,3.731094969,3.959973379,4.20227352,4.580534594,5.18966903,1
4.853749521,5.32471494,5.917710633,6.653079731,7.520131355,8.444725502,9.290377199,9.88764186,10.10003484,9.867630996,9.236683071,8.347988204,7.397188477,6.559925704,5.945868955,5.575119063,5.39506577,5.31237028,5.248198148,5.169055802,5.098903239,5.098819011,5.242031281,5.576057255,6.097235141,6.741660174,7.400079441,7.944895972,8.264937892,8.300947369,8.061686335,7.619996291,7.089286626,6.59667452,6.244120318,6.092639702,6.156764629,6.413324106,6.80904748,7.285361448,7.78200921,8.246682468,8.633411007,8.907659493,9.034578785,8.983427594,8.72163935,8.224610537,7.476046951,6.482220277,5.274589499,3.920230208,2.513941445,1.171470549,0.013033876,-0.852585876,-1.356471481,-1.482424384,-1.273346935,-0.835009616,-0.331276251,0.026367433,-0.015142157,-0.725670752,-2.317980073,-4.827093725,-7.936176644,-10.81267696,-12.06566747,-9.953192517,-2.870947336,9.93701913,27.68115638,47.65150642,65.47614615,76.07344676,75.08555626,60.31955399,32.68613838,-3.801315552,-43.00817829,-78.29798263,-104.2197573,-117.7334823,-118.6062172,-108.9706964,-92.34994113,-72.55008986,-52.77714345,-35.16359922,-20.72145972,-9.575473046,-1.324229683,4.628869546,8.83205674,11.67967153,13.40280422,14.13508966,13.99123863,13.15333338,11.88886226,10.52894057,9.40216338,8.774073302,8.776660286,9.401559535,10.52218228,11.95252014,13.49167784,14.97499985,16.29045554,17.38131096,18.22498503,18.82600237,19.20356517,19.38087269,19.37753804,19.21394621,18.90372228,18.45393423,17.87641964,17.19744075,16.45752208,15.71615666,15.04702045,14.51964717,14.18380371,14.06099282,14.14188674,14.38427923,14.73176699,15.12504053,15.51174392,15.84241055,16.07841549,16.17066248,16.0569575,15.6592185,14.89813427,13.69401013,11.99537978,9.786165216,7.092142429,3.972532028,0.521500008,-3.148981845,-6.920383751,-10.67843455,-14.32071176,-17.76750583,-20.96018762,-23.85046525,-26.39228437,-28.52548959,-30.17393584,-31.25665809,-31.71032123,-31.50916398,-30.69354009,-29.36757994,-27.68464,-25.81872692,-23.93080391,-22.13466214,-20.48821132,-18.99046519,-17.60136126,-16.26689033,-14.93769183,-13.58119487,-12.19058931,-10.77331848,-9.343512889,-7.920247612,-6.525407135,1
6.953192034,6.738641277,6.643299567,6.684554647,6.824939472,6.99767581,7.136945262,7.202484939,7.202750952,7.184082784,7.204459442,7.299432826,7.459146316,7.618102929,7.665799931,7.467687102,6.902716173,5.889319649,4.393512971,2.43099732,0.059175694,-2.639469325,-5.566826659,-8.599322136,-11.58738365,-14.35281299,-16.7026226,-18.44273833,-19.41471279,-19.51963032,-18.73792973,-17.12726869,-14.82700784,-12.0452249,-9.047107767,-6.132817141,-3.611712572,-1.752784819,-0.7393733,-0.627255121,-1.336115641,-2.663377625,-4.345897687,-6.119494821,-7.787697576,-9.249469128,-10.51490859,-11.66603153,-12.8247785,-14.09676084,-15.54708731,-17.1715236,-18.90818978,-20.64765542,-22.26707963,-23.64474541,-24.68541153,-25.32636969,-25.5382711,-25.32287594,-24.73093295,-23.86664126,-22.88996444,-21.98776962,-21.28535609,-20.69025601,-19.74362761,-17.52941196,-12.7766719,-4.216264566,8.833451218,25.85418503,44.70931546,61.74246724,72.48926192,72.8887398,60.59158177,35.93888578,2.15930765,-35.31465855,-70.21702059,-97.00001805,-112.0998652,-114.5267772,-105.6992158,-88.6836468,-67.21321472,-44.78886992,-24.08124643,-6.698609563,6.737313161,16.3470218,22.6919894,26.51028671,28.53452756,29.38881096,29.55445534,29.38139657,29.11376068,28.90532242,28.83081497,28.89449016,29.04257498,29.17810202,29.19334793,29.00561809,28.57830807,27.92918239,27.12755334,26.27386042,25.47199671,24.81197389,24.35181463,24.11582925,24.10128746,24.29053863,24.65981937,25.19652232,25.89660665,26.7591589,27.77795756,28.93426688,30.18582438,31.46991306,32.71244403,33.83976943,34.78879761,35.50932645,35.97073525,36.15648702,36.05744819,35.66458619,34.97694945,33.98972031,32.69822953,31.10025212,29.20107659,27.00981484,24.55374684,21.8748588,19.02804294,16.07956113,13.09808243,10.13622678,7.224249484,4.365291868,1.531331912,-1.323133066,-4.237911917,-7.224145688,-10.2470512,-13.22198189,-16.02976042,-18.54398879,-20.66389073,-22.34068922,-23.57844945,-24.41762482,-24.90991811,-25.09518086,-24.98247591,-24.55736534,-23.80244913,-22.72451235,-21.36205334,-19.79068119,-18.10875419,-16.4169972,-14.79262154,-13.29080197,-11.94437574,-10.77636779,-9.805941362,-9.053617626,-8.529813843,1
12.58086448,14.65371423,16.30808474,17.39717039,17.78440069,17.40920837,16.33450554,14.74551827,12.9088576,11.10081076,9.53011076,8.292815075,7.36258069,6.614979486,5.880070269,5.00469802,3.896145946,2.545215717,1.024403264,-0.538798074,-2.001988973,-3.24961923,-4.222458117,-4.933129646,-5.451267664,-5.878258667,-6.312335029,-6.818607014,-7.403863476,-8.021519744,-8.580496982,-8.958809178,-9.024718467,-8.671011172,-7.835271384,-6.520636357,-4.817640307,-2.897717351,-0.975548914,0.739431024,2.088065331,3.007074532,3.528685137,3.754185959,3.799279067,3.7517334,3.634291094,3.412437008,3.011823224,2.36353777,1.435185486,0.253129227,-1.10376583,-2.515773334,-3.851434037,-4.992693035,-5.856020775,-6.401123248,-6.637278705,-6.624121741,-6.469217834,-6.322838308,-6.371924674,-6.808763126,-7.763414228,-9.191572936,-10.73925091,-11.62453593,-10.64037913,-6.367905754,2.367650542,15.89388121,33.11586076,51.26716612,66.22868549,73.44570385,69.21191665,51.9431261,22.93937912,-13.70974332,-52.07912352,-85.8872247,-110.0331896,-121.6935519,-120.6750181,-109.018419,-90.14245575,-67.84342971,-45.46189223,-25.39017639,-8.959546871,3.440442475,12.08541622,17.62056099,20.80764569,22.36695555,22.86453891,22.69337666,22.09190914,21.19313878,20.06357032,18.75867243,17.33841445,15.87714102,14.45255449,13.14592814,12.02226676,11.13109739,10.48926427,10.08390332,9.865317725,9.761497765,9.680949591,9.547120004,9.313490885,8.975012967,8.559699646,8.129346385,7.751932006,7.477987346,7.333033661,7.322816797,7.428284339,7.614375003,7.850264949,8.115592066,8.395668796,8.683727687,8.976625625,9.263188745,9.515836476,9.695617353,9.753367865,9.64357977,9.330012008,8.795200032,8.03848161,7.077438481,5.934086698,4.629359184,3.176780979,1.578103686,-0.177342051,-2.106925587,-4.22044683,-6.514104512,-8.955961795,-11.4843227,-14.00752507,-16.42246831,-18.62898093,-20.55081736,-22.1475334,-23.41945612,-24.39792584,-25.12429366,-25.62954687,-25.9183289,-25.96380682,-25.71435797,-25.11681704,-24.14483484,-22.81389488,-21.18959568,-19.38046097,-17.51407741,-15.70064659,-14.01567911,-12.48474007,-11.08297522,-9.758875855,-8.462453916,-7.161725336,-5.856123564,-4.576852273,1
14.66529665,14.50043476,14.19741994,13.74015553,13.13836542,12.42424814,11.6511972,10.88163178,10.16996254,9.547091955,9.024859606,8.590158486,8.215700634,7.864464154,7.50475596,7.110269021,6.673107936,6.204487772,5.735347743,5.302412989,4.940995815,4.6657908,4.462290844,4.285835272,4.074818757,3.766987693,3.32814451,2.766441278,2.144771307,1.577501135,1.213043129,1.199287372,1.652548914,2.622537352,4.063236306,5.835291985,7.732458288,9.529964981,11.03291463,12.13423348,12.82425826,13.1746692,13.28970412,13.26393311,13.13216262,12.86660864,12.39226625,11.62562867,10.50489867,9.02461329,7.239701309,5.260944605,3.234785783,1.322715408,-0.335988732,-1.643576809,-2.557360962,-3.087653037,-3.289578349,-3.241336093,-3.046298378,-2.844448558,-2.821556568,-3.178484295,-4.041525069,-5.296612685,-6.399958646,-6.276855366,-3.433398409,3.638901701,15.8179875,32.64215134,51.86454905,69.55451171,80.89805079,81.50593247,68.85476914,43.30953353,8.316955014,-30.38642239,-66.24615348,-93.57012998,-108.8367586,-111.2713434,-102.5821365,-86.11632443,-65.77959675,-45.10269295,-26.64177852,-11.7969119,-0.938728017,6.291847113,10.66056881,13.04727106,14.25519118,14.91107005,15.43225646,16.03327659,16.77548794,17.61233559,18.43225872,19.09751987,19.47822351,19.46686271,18.99867706,18.06238308,16.70274808,15.01328479,13.12213522,11.16464468,9.253810923,7.45986453,5.806589858,4.283984852,2.87449646,1.584904433,0.461075871,-0.415357289,-0.943980492,-1.036838485,-0.646805049,0.225289929,1.52640011,3.158575372,5.000207696,6.916481347,8.762160509,10.40195453,11.72168806,12.63069251,13.07782547,13.058804,12.60520386,11.77502098,10.64561484,9.296755168,7.800875839,6.212905443,4.564702292,2.859773222,1.07342985,-0.844013502,-2.951820981,-5.300984361,-7.916803508,-10.78700407,-13.85137973,-17.00036506,-20.09074076,-22.96311639,-25.45689868,-27.44054729,-28.83763724,-29.63560674,-29.8837379,-29.68690817,-29.17193831,-28.45458429,-27.60917724,-26.66331295,-25.60112804,-24.38501882,-22.98286984,-21.40128628,-19.68353372,-17.89975635,-16.13049049,-14.44352996,-12.86739526,-11.39676979,-10.00038924,-8.639240139,-7.282249974,-5.923162178,-4.578600831,1
0.980898462,0.878221065,0.534608991,-0.094427157,-1.012198891,-2.174973354,-3.49324131,-4.850258757,-6.132350073,-7.259804852,-8.193554822,-8.932967235,-9.491899902,-9.87968674,-10.08797221,-10.10278853,-9.913422939,-9.537649783,-9.022717126,-8.44138235,-7.868156288,-7.365137413,-6.964432669,-6.670562893,-6.467365929,-6.337897581,-6.272006509,-6.271574847,-6.348632466,-6.509191018,-6.730463642,-6.958871322,-7.111889147,-7.086111956,-6.79332549,-6.200211218,-5.338532702,-4.303343622,-3.236880199,-2.283896269,-1.542963367,-1.048520012,-0.771216346,-0.64409158,-0.594943352,-0.582463543,-0.609756514,-0.719527396,-0.955955198,-1.347847607,-1.885107496,-2.506416472,-3.106757135,-3.57626967,-3.812885225,-3.748415553,-3.369571879,-2.720242697,-1.879203874,-0.953761169,-0.06652781,0.651137946,1.054745806,0.984454614,0.310466214,-0.960177629,-2.529110043,-3.654545189,-3.108500837,0.637093873,8.9452984,22.35417971,39.945469,59.04398432,75.5027458,84.62879107,82.53169083,67.43263893,40.45647017,5.567149394,-31.38267592,-64.16703181,-87.72662621,-99.26897527,-98.63138983,-87.88989229,-70.46787589,-50.12256453,-30.09210686,-12.59764544,1.273944319,11.38844654,18.24388589,22.61943186,25.30474243,26.92758934,27.90495015,28.47000082,28.73850609,28.76140578,28.57277807,28.1972875,27.64082116,26.8888058,25.92586087,24.75050071,23.39765179,21.94929285,20.52574254,19.25067146,18.221017,17.48269921,17.02725692,16.79549785,16.70965673,16.69916563,16.71800796,16.74408302,16.77864294,16.82807133,16.8985253,17.00089696,17.16574387,17.44812423,17.9206365,18.64438042,19.6345072,20.82739759,22.07808739,23.19474773,23.994447,24.35564322,24.25428776,23.76437517,23.01702155,22.14820203,21.25088684,20.35638174,19.43275686,18.41518136,17.24283306,15.88732262,14.34979341,12.66152578,10.86396173,8.979057673,6.99960809,4.903619218,2.657202587,0.234397084,-2.350127183,-5.034901463,-7.725063668,-10.29589162,-12.62104736,-14.60781158,-16.21018455,-17.42296876,-18.28312971,-18.84100258,-19.13776174,-19.19387786,-19.01335424,-18.58586858,-17.9060214,-16.98386775,-15.85246771,-14.56582654,-13.18736201,-11.77834385,-10.38770572,-9.044796091,-7.757397122,-6.526167449,-5.357222255,1
1.416570204,1.759618557,1.542677386,0.809982205,-0.314974614,-1.641009536,-2.959853524,-4.069869403,-4.80787921,-5.073450132,-4.852439914,-4.203329853,-3.251850355,-2.158774537,-1.080677416,-0.12953781,0.646022818,1.266417,1.796856842,2.315047933,2.880231607,3.511270623,4.186890832,4.868473438,5.521356277,6.130562838,6.706371147,7.27569787,7.855428697,8.437442683,8.984075154,9.440177724,9.74433112,9.851309575,9.735461019,9.385532552,8.785839874,7.916051634,6.75565266,5.303665241,3.598737284,1.738080829,-0.139380987,-1.881660551,-3.35779901,-4.48772184,-5.258432854,-5.705876646,-5.899431276,-5.920710477,-5.841673729,-5.718492914,-5.5936285,-5.48328274,-5.374456946,-5.234341445,-5.007267332,-4.632727643,-4.070481978,-3.328718329,-2.479029975,-1.68060506,-1.169118952,-1.229642544,-2.110558297,-3.890793165,-6.301992888,-8.581480449,-9.42957154,-7.203259385,-0.377942774,11.78771804,28.59173762,47.51824781,64.44523482,74.51475205,73.47732296,59.08419072,32.03546145,-3.930833793,-42.89740822,-78.28620637,-104.5040425,-118.2072213,-118.8119837,-108.190277,-89.78774632,-67.55596178,-45.03072135,-24.76686913,-8.171719948,4.347357435,13.07983428,18.688991,21.95134706,23.57727933,24.13242926,24.02433229,23.52396129,22.79127299,21.91753697,20.94791794,19.90256532,18.79324955,17.64426776,16.49688654,15.41163019,14.45212112,13.66950331,13.08413921,12.67462699,12.38604766,12.15743324,11.9374023,11.7024518,11.47213448,11.29317087,11.21543968,11.28095475,11.50796147,11.87845379,12.35475544,12.89088729,13.43915884,13.96382492,14.4480985,14.88571897,15.27803086,15.62674996,15.91823693,16.11858512,16.16952822,15.98737142,15.47780951,14.55491014,13.14863727,11.22368311,8.794115751,5.920012707,2.701429825,-0.724943593,-4.207293201,-7.603763073,-10.80516011,-13.74809704,-16.41777241,-18.83783791,-21.0534688,-23.10298075,-25.00442236,-26.75828732,-28.35304855,-29.76900256,-30.99558197,-32.03217829,-32.87641147,-33.51552491,-33.93010843,-34.0847582,-33.93889025,-33.46427488,-32.65394134,-31.52098343,-30.11024311,-28.4863353,-26.71962369,-24.88517333,-23.05750379,-21.29646219,-19.65239647,-18.16856302,-16.86881354,-15.76020488,-14.83198711,-14.04676386,1
2.201980455,1.878973413,1.637800142,1.537646964,1.613627495,1.864330622,2.265004863,2.782231592,3.393178065,4.101301036,4.940223613,5.957946297,7.196616514,8.655418065,10.27940565,11.95633919,13.53806523,14.86723908,15.82660732,16.35215296,16.44121355,16.13600785,15.51095107,14.64369135,13.60831597,12.47761277,11.33216295,10.25684719,9.345984819,8.701956981,8.417720232,8.565731584,9.186698743,10.26681558,11.72105759,13.39668059,15.07977295,16.53674791,17.57139593,18.07666696,18.06313791,17.66710648,17.0942335,16.55294372,16.18673603,16.03195589,16.00256298,15.94178547,15.67805696,15.08268498,14.10987162,12.81500374,11.32679513,9.80715842,8.413378516,7.263904749,6.415495025,5.861231599,5.552919871,5.413806582,5.349529664,5.251304386,4.995358303,4.432702451,3.426597266,1.945066551,0.204999912,-1.18379693,-1.141726925,1.748956135,8.847179641,20.84257324,37.12332831,55.37539038,71.72987378,81.55681773,80.73915065,67.02729821,41.00683281,6.230223069,-31.57331468,-65.95055152,-91.34553358,-104.3815163,-104.4072562,-93.2456796,-74.35778071,-51.78163738,-29.17893586,-9.221621796,6.61702585,17.945195,25.15726707,29.07674545,30.64504584,30.71445006,29.94665133,28.78111151,27.47542944,26.16212415,24.89425679,23.6775136,22.50286582,21.34873281,20.18816682,19.00628369,17.81269544,16.63449152,15.51827416,14.52176339,13.69049709,13.04193201,12.56629033,12.22730702,11.9676328,11.72319637,11.4350592,11.05788116,10.56238049,9.940233138,9.209717041,8.415462531,7.61875214,6.890855607,6.299553672,5.891331707,5.676707655,5.630280957,5.700108447,5.815032231,5.897196166,5.882317197,5.722944472,5.37718684,4.811453154,4.001207032,2.921392228,1.555383099,-0.089523954,-1.975212793,-4.037639262,-6.190675006,-8.343362327,-10.41622831,-12.36507095,-14.1811696,-15.88093792,-17.49397785,-19.05286784,-20.56723938,-22.01704889,-23.36356951,-24.55571723,-25.53549269,-26.25896491,-26.71133524,-26.90073126,-26.85443384,-26.61402953,-26.21974417,-25.69530439,-25.05170313,-24.28884598,-23.40175962,-22.38766457,-21.24726526,-19.9771597,-18.57128882,-17.02064237,-15.32089396,-13.49026887,-11.58567321,-9.700599735,-7.95360051,-6.46381315,1
2.788217646,2.888399891,3.120639179,3.510618122,4.04473986,4.667698245,5.304997448,5.881496717,6.339155462,6.636713638,6.755950151,6.698885474,6.477333687,6.103829113,5.599529504,4.999375912,4.351695563,3.717525926,3.170029575,2.777004246,2.576051487,2.562827161,2.693635979,2.889309224,3.051905184,3.095363305,2.967160093,2.66018522,2.216544361,1.726459151,1.311127284,1.099814981,1.194185762,1.643914072,2.418529158,3.400861468,4.407221582,5.237928928,5.729033915,5.802376748,5.491069783,4.91960182,4.253654995,3.632609061,3.125516182,2.709181678,2.297478213,1.786858403,1.118181072,0.300868075,-0.583894091,-1.422129265,-2.103907463,-2.563201887,-2.788097851,-2.813572987,-2.689595406,-2.462766183,-2.168477965,-1.839493584,-1.526192775,-1.325332921,-1.386040689,-1.873290756,-2.879154537,-4.285013153,-5.609950431,-5.920304718,-3.908091211,1.786583776,12.03098308,26.58157521,43.61944657,59.73073033,70.5084312,71.6905267,60.49183563,36.69878039,3.072249387,-35.17008337,-71.64087454,-100.3819138,-117.2771067,-120.851657,-112.2544197,-94.56111954,-71.74858104,-47.69086683,-25.42591916,-6.839326393,7.300367054,17.08607466,23.14029437,26.29945463,27.39994393,27.15062416,26.08831498,24.58780909,22.89754085,21.17785561,19.53356008,18.03273122,16.71065577,15.57642691,14.60590697,13.74684419,12.93124244,12.0942208,11.18536435,10.18727669,9.121885583,8.041516855,7.015970487,6.116667408,5.406536926,4.928183687,4.704862076,4.739438532,5.02461362,5.539771047,6.260962814,7.164710519,8.233514441,9.449470569,10.7992165,12.26232747,13.80457416,15.37594345,16.91690746,18.36015558,19.64164882,20.71165134,21.537003,22.09516572,22.37414008,22.37230674,22.0888149,21.52274958,20.68023934,19.56660369,18.17805132,16.50552237,14.53392312,12.23981701,9.602674513,6.620631146,3.320850745,-0.234775037,-3.946110659,-7.675301535,-11.26554859,-14.56790082,-17.45691375,-19.84724799,-21.71285241,-23.08194689,-24.01106554,-24.57210302,-24.83500048,-24.8419475,-24.60073384,-24.10256305,-23.32564008,-22.246217,-20.86255174,-19.20624094,-17.33464548,-15.33400707,-13.31252257,-11.37873324,-9.620995467,-8.09917893,-6.831074768,-5.788605595,-4.90979855,1
4.427626088,5.00534062,5.504340997,5.846660781,5.974768351,5.865748519,5.535477019,5.034141408,4.435412888,3.828708575,3.303025654,2.93296725,2.766662888,2.814609068,3.04807305,3.405358435,3.803679019,4.159113332,4.410046425,4.531001045,4.536543229,4.474976987,4.406756366,4.375008668,4.381642908,4.383080367,4.294623889,4.023265981,3.51241947,2.782248347,1.941647325,1.188933776,0.762435663,0.870981863,1.624046696,2.990456437,4.782052357,6.702527048,8.424950439,9.679832687,10.32024608,10.34905982,9.88917839,9.126670968,8.240623365,7.35121479,6.500649176,5.668947898,4.803209199,3.852557243,2.790640808,1.628638994,0.405612103,-0.820417512,-1.978512253,-2.989724441,-3.785831426,-4.309500921,-4.520333295,-4.416318397,-4.056534411,-3.564839057,-3.142909901,-3.061175244,-3.589232334,-4.855202884,-6.67260735,-8.362138212,-8.67777219,-5.964980236,1.366616312,14.15587811,31.77704118,51.70699777,69.68519749,80.60706243,79.93189155,65.1707505,36.94186285,-0.880162556,-42.04800293,-79.54751623,-107.3598391,-121.8557023,-122.3733866,-110.9056707,-91.15254262,-67.37959007,-43.39721393,-21.94611984,-4.52542139,8.440600963,17.29398671,22.77681042,25.74518854,26.97950369,27.09044703,26.482391,25.3891748,23.93210242,22.18528067,20.23130795,18.1934754,16.23133498,14.5058319,13.14137319,12.18979303,11.62367409,11.35295107,11.26862777,11.27617939,11.33088931,11.43429468,11.61452164,11.88978418,12.25183012,12.64196201,12.97237562,13.15482505,13.13186279,12.89039809,12.47980834,11.98882696,11.51664618,11.14958422,10.94579113,10.91890064,11.04174444,11.25758579,11.49614539,11.68573847,11.77005027,11.72721997,11.57709881,11.36052697,11.12170759,10.88044148,10.60193932,10.18716695,9.500918228,8.401328086,6.782433452,4.602772777,1.897546329,-1.236178129,-4.662652495,-8.241341046,-11.84167507,-15.3560859,-18.69842401,-21.79179173,-24.55487992,-26.89808372,-28.72577551,-29.95280736,-30.53017092,-30.46273943,-29.82332036,-28.73968472,-27.36417008,-25.83437762,-24.24851469,-22.6421833,-21.00628133,-19.31368692,-17.55266552,-15.73980433,-13.9377827,-12.22591369,-10.67939978,-9.344183207,-8.23284612,-7.311297163,-6.528696243,-5.828898894,1
1.926123927,2.135065568,2.228441208,2.209855345,2.088276066,1.878067481,1.5904919,1.236072216,0.828271139,0.391491143,-0.048202948,-0.456010823,-0.798477663,-1.050630158,-1.205895719,-1.270116715,-1.270106334,-1.244858692,-1.236289633,-1.280374477,-1.402692911,-1.607842736,-1.88160403,-2.202565346,-2.551503237,-2.91953294,-3.316025247,-3.757581504,-4.24052712,-4.713164398,-5.063031113,-5.121557879,-4.705615924,-3.684662708,-2.045736987,0.076102796,2.413987353,4.63716271,6.444334619,7.651130175,8.228605653,8.28871262,8.017860484,7.606116893,7.179542132,6.777267203,6.359163564,5.851560573,5.178799748,4.3013439,3.234186254,2.049937522,0.858792182,-0.205559215,-1.018457385,-1.494113464,-1.602947813,-1.373694058,-0.88878223,-0.269341429,0.32154096,0.675137305,0.540193443,-0.338573309,-2.106932749,-4.592990698,-7.103452803,-8.316837043,-6.403322119,0.507073596,13.55406935,32.33549326,54.37507903,75.20373803,89.25448939,91.38094931,78.51609651,50.89350017,12.31739482,-30.70642512,-70.66662677,-100.9861189,-117.573082,-119.5091711,-108.7665721,-89.22391881,-65.40435855,-41.37309318,-20.05563347,-3.032676452,9.301076731,17.37354297,22.04626409,24.29042839,24.97005829,24.73209559,23.98887806,22.96152211,21.75108341,20.40776579,18.97362012,17.49744107,16.02804076,14.60667626,13.2642076,12.03647526,10.97811951,10.16007957,9.641626868,9.440421319,9.504974966,9.717559376,9.927326916,10.01276707,9.939530632,9.787798836,9.731666963,9.995523213,10.781021,12.18952978,14.17794905,16.56264606,19.04394557,21.27855819,22.97573648,23.97496295,24.27907764,24.04906824,23.53567975,22.98318399,22.556295,22.30550173,22.18021631,22.07995974,21.90289818,21.55599944,20.9531992,19.99783737,18.57974622,16.61024917,14.0756148,11.05662381,7.712625761,4.224251856,0.711873876,-2.813943237,-6.435715211,-10.25680889,-14.30796848,-18.48104768,-22.52650086,-26.11743175,-28.95155443,-30.84549595,-31.77307857,-31.84550796,-31.25266183,-30.19072471,-28.80761731,-27.19298145,-25.40085666,-23.47009316,-21.44663514,-19.38682029,-17.34318356,-15.34747338,-13.41668687,-11.55827228,-9.789002642,-8.142243164,-6.656561922,-5.354365827,-4.228204322,-3.228937784,-2.288810794,1
-1.819648537,-2.384119605,-3.088255669,-3.938708238,-4.861048045,-5.732674525,-6.435560993,-6.916290148,-7.199307761,-7.326020673,-7.266001018,-6.872219345,-5.911875979,-4.175174339,-1.614533821,1.558265319,4.900864917,7.892872282,10.13856993,11.51811813,12.22451411,12.63913395,13.12898367,13.85088532,14.67243473,15.21690967,15.04360064,13.82112952,11.47127934,8.191738328,4.402385197,0.606159337,-2.711460221,-5.173573906,-6.54547,-6.753437986,-5.863068858,-4.067285167,-1.6590939,1.008074465,3.583546076,5.772766904,7.380395835,8.334463514,8.676642477,8.527240418,8.040358163,7.357061537,6.567030651,5.701120773,4.733546816,3.607826583,2.275226051,0.734517694,-0.959256007,-2.690184313,-4.301467617,-5.628666274,-6.542097612,-6.97398785,-6.942562283,-6.571492708,-6.087643029,-5.791421232,-5.981079047,-6.832798341,-8.223864101,-9.58211044,-9.826215824,-7.522268038,-1.282501901,9.613474217,24.5943218,41.40982495,56.28812804,64.71742907,62.71301782,48.15183492,21.72077384,-12.9654001,-50.17113451,-83.50703255,-107.5437482,-119.0761621,-117.6426459,-105.2274598,-85.39203034,-62.20220672,-39.28306016,-19.22407347,-3.398901485,7.908345253,15.18894153,19.34859334,21.38354131,22.15774391,22.27623783,22.07327356,21.66301685,21.03174132,20.13030527,18.94334034,17.50825272,15.91292876,14.27562545,12.71028326,11.30634366,10.11960567,9.168707922,8.432139701,7.865183941,7.412894952,7.034226659,6.714664689,6.473919494,6.35987454,6.427202054,6.704310491,7.180018347,7.809790109,8.524289207,9.26259607,10.00252345,10.77268457,11.63067309,12.64316894,13.84468298,15.2101249,16.63850466,17.98075642,19.07047535,19.77435104,20.03055904,19.87361282,19.41396338,18.80246137,18.17906748,17.62417816,17.1292621,16.60519684,15.91553045,14.91453619,13.48926083,11.59101123,9.236924768,6.494766702,3.469983328,0.288412555,-2.924214171,-6.04227859,-8.948835717,-11.54451717,-13.75524809,-15.53416243,-16.87292889,-17.78921891,-18.32244639,-18.52381006,-18.45503727,-18.17771767,-17.76068564,-17.27523384,-16.80055389,-16.41014908,-16.17778453,-16.1641601,-16.41004588,-16.92220389,-17.67925553,-18.6123415,-19.62026414,-20.57602404,-21.34060793,-21.77010182,-21.74479401,1
5.240628389,5.177645917,5.101152156,4.96570226,4.733747483,4.385025027,3.919830238,3.363467683,2.763644161,2.186123712,1.69805285,1.35972248,1.21096983,1.259401948,1.474261191,1.797266573,2.150865444,2.455074446,2.648525309,2.700645736,2.614121819,2.420711588,2.17115636,1.916750903,1.701050541,1.544619259,1.44495883,1.379678346,1.317317518,1.227483196,1.105778309,0.980912047,0.914390287,0.987317719,1.271420001,1.791038875,2.504295259,3.299720858,4.022438118,4.527142345,4.727177652,4.620066282,4.286976184,3.858313103,3.453071455,3.136056197,2.89835687,2.672746699,2.364791679,1.901100723,1.256534792,0.461608464,-0.416928021,-1.299351057,-2.119688565,-2.839145531,-3.437838548,-3.90279252,-4.212714935,-4.338685795,-4.257753461,-3.993615761,-3.642256744,-3.379622465,-3.409523043,-3.854836464,-4.586585938,-5.073932896,-4.325728718,-1.038032363,6.025773238,17.45315735,32.60695753,49.28590839,63.8902621,72.16040159,70.36085679,56.51240254,31.25475659,-2.045119421,-38.024763,-70.67469589,-94.82812808,-107.3279653,-107.5379947,-97.11949508,-79.26110619,-57.70662019,-35.88794322,-16.35685565,-0.576550771,10.98186594,18.58086541,22.90339192,24.78190896,24.99563003,24.17024687,22.75041398,21.02431991,19.16232113,17.27789995,15.4554622,13.75839185,12.23434358,10.91302559,9.784837002,8.811067084,7.939122146,7.109105143,6.269471633,5.400114311,4.508938247,3.627289266,2.809218061,2.12063852,1.620518296,1.353218273,1.341937901,1.576805886,2.011140975,2.575615964,3.195046005,3.802780037,4.360920392,4.871464495,5.363792024,5.873296211,6.424641155,7.015830266,7.611940634,8.157068596,8.590699741,8.85550718,8.902464531,8.69580098,8.209358065,7.432813372,6.384723118,5.120504448,3.723933833,2.29991445,0.940850704,-0.302056087,-1.440155841,-2.542884834,-3.726246929,-5.10778363,-6.774309337,-8.751258557,-10.99370792,-13.39251445,-15.80711519,-18.09194296,-20.12206219,-21.80883978,-23.10416388,-23.99257841,-24.48471352,-24.61331991,-24.42960145,-23.99853719,-23.39504376,-22.69119603,-21.94521188,-21.19315444,-20.44800404,-19.69926275,-18.92673669,-18.1108809,-17.24262378,-16.32234028,-15.36426857,-14.39087513,-13.42476427,-12.47394486,1
6.553108035,6.753246833,6.909899381,6.980356523,6.932334077,6.764733906,6.519154545,6.27340869,6.118122003,6.129989556,6.348608679,6.772578173,7.366097908,8.072759542,8.836995476,9.614565098,10.37356934,11.09189242,11.7549942,12.34681694,12.84839196,13.23824314,13.49160266,13.58297467,13.49743725,13.23879457,12.82852791,12.31186204,11.75977292,11.2573451,10.8920749,10.75345831,10.91930779,11.43580846,12.30385561,13.47374392,14.83737907,16.24228881,17.52481135,18.55076913,19.2408836,19.58947815,19.65387134,19.52736538,19.30007436,19.02836674,18.71655211,18.32219472,17.75913447,16.92078786,15.71467713,14.09218788,12.06459821,9.729849367,7.257557932,4.845604934,2.66501274,0.823860328,-0.670401183,-1.896960048,-2.987102399,-4.07991264,-5.303181983,-6.74890162,-8.441628089,-10.26288853,-11.83865184,-12.43021051,-10.93063276,-6.085033328,3.0505313,16.50602468,32.87485529,49.16204323,61.23887108,64.86257592,56.98038531,36.87611937,6.691029219,-28.94989389,-64.09506172,-92.9935019,-111.4888071,-117.8438882,-112.7895445,-98.91199016,-79.71156703,-58.67040188,-38.57639499,-21.21757658,-7.403022588,2.823610873,9.899954445,14.48110536,17.24277501,18.76054959,19.46198507,19.62570134,19.4114187,18.90281745,18.15189951,17.19511829,16.06859089,14.80672434,13.44161077,11.99926748,10.51723758,9.04117713,7.628364573,6.333138283,5.192826546,4.207620249,3.347907755,2.560562333,1.798353422,1.051519856,0.362312396,-0.187303974,-0.492537941,-0.458700491,-0.038962786,0.750555978,1.839881491,3.122480148,4.478988913,5.803930303,7.025508037,8.106207851,9.035429231,9.822408635,10.48542305,11.0315419,11.45216606,11.72548318,11.81184692,11.66387801,11.25384975,10.58062279,9.669287952,8.580979679,7.393165404,6.159391762,4.896938323,3.585618797,2.158786748,0.528363842,-1.370400747,-3.563503857,-6.03741963,-8.730961321,-11.54686023,-14.38021392,-17.12479331,-19.67368537,-21.92489505,-23.79409466,-25.21006777,-26.1231877,-26.50820353,-26.3751032,-25.75664838,-24.7118748,-23.32049661,-21.67956079,-19.88005971,-18.00395317,-16.11844983,-14.27237579,-12.49457087,-10.8112538,-9.246690444,-7.814118804,-6.519880379,-5.368636718,-4.354947759,1
0.429113619,0.130304657,-0.243709522,-0.627305989,-0.930099476,-1.064431014,-0.985228133,-0.708638746,-0.315283655,0.077497856,0.356372673,0.461711633,0.403880478,0.254806843,0.116560381,0.077670459,0.175358359,0.389701885,0.664323214,0.932309735,1.157925281,1.353370453,1.566676868,1.847142894,2.22030159,2.650137496,3.043387312,3.28518854,3.289136901,3.0308681,2.579950483,2.08247771,1.713721308,1.621192105,1.883505261,2.481515452,3.311917433,4.226970053,5.086455207,5.794513134,6.324334426,6.712189308,7.026172874,7.321584377,7.612062746,7.857636247,7.970458066,7.847726334,7.414485405,6.65409405,5.609611045,4.381773095,3.094073743,1.853055494,0.717294291,-0.298810024,-1.221746347,-2.081066997,-2.881552224,-3.592016782,-4.171732012,-4.604533558,-4.952009688,-5.354568444,-5.96475226,-6.804547939,-7.592911255,-7.598951978,-5.669662014,-0.505332127,8.828607663,22.29041115,38.36563443,53.9956582,65.10000722,67.63142657,58.84798494,38.3832269,8.663565928,-25.5512076,-58.37376053,-84.29951541,-99.54574844,-102.8021206,-95.19632215,-79.60944956,-59.70538164,-38.98422447,-20.10745354,-4.629812264,6.92214544,14.79506457,19.67491529,22.37458993,23.63413809,24.02474169,23.91903784,23.52611681,22.96114778,22.28728527,21.54384902,20.76436021,19.97672627,19.19037825,18.40785836,17.63890771,16.90296918,16.23247127,15.67248213,15.25787986,14.99230566,14.84454699,14.74579795,14.60649398,14.35161659,13.94385602,13.39546218,12.77616715,12.19120628,11.74802502,11.53421791,11.60019066,11.94514778,12.52426105,13.26441424,14.08018947,14.88602966,15.61268139,16.21650316,16.67789474,16.99351504,17.17590959,17.23918159,17.18671791,17.00704149,16.67846215,16.16357907,15.42863504,14.45847015,13.2661239,11.88857531,10.38940434,8.831733472,7.259821516,5.68804586,4.103399166,2.466037608,0.728958652,-1.145180961,-3.171202444,-5.331435674,-7.568619988,-9.787366193,-11.86945658,-13.69483731,-15.16854495,-16.23605892,-16.88908483,-17.15172988,-17.06240497,-16.65544304,-15.96276541,-15.02126446,-13.88867863,-12.65088612,-11.42048869,-10.31161645,-9.420804404,-8.807204414,-8.48176623,-8.403594748,-8.499200522,-8.672872147,-8.823710138,-8.868481254,1
-4.961675073,-4.881340008,-4.786545235,-4.713999614,-4.696661854,-4.74765857,-4.856099442,-4.991529562,-5.12306051,-5.239171168,-5.347059599,-5.470905491,-5.634183806,-5.846486738,-6.085621172,-6.312835804,-6.47918098,-6.548835194,-6.502890355,-6.353977356,-6.133044996,-5.884878939,-5.649628083,-5.464070413,-5.349739391,-5.315582619,-5.350319278,-5.425532249,-5.484301028,-5.439449139,-5.175317508,-4.567466982,-3.5030888,-1.91370417,0.18672929,2.688386596,5.394944706,8.056229575,10.41347979,12.26781923,13.51510208,14.15684502,14.27061609,13.97238566,13.35953116,12.48420293,11.34941175,9.939646186,8.252519586,6.327819965,4.250061955,2.134852718,0.101023652,-1.756709161,-3.383282135,-4.755769778,-5.869502352,-6.721257924,-7.300260697,-7.588520519,-7.586955823,-7.343673237,-6.983377027,-6.70046544,-6.709351898,-7.122078049,-7.787043306,-8.131971267,-7.12053493,-3.410172717,4.234155337,16.34109322,32.13838167,49.23406855,63.8275059,71.52129085,68.56833637,53.14913051,26.21809754,-8.463569262,-45.16693725,-77.65073151,-100.7277725,-111.4484381,-109.5523516,-97.13811129,-77.7820004,-55.47112575,-33.68828584,-14.85346433,-0.184014661,10.14394071,16.65944385,20.24165564,21.82461713,22.21356515,21.99445933,21.53353081,21.01435496,20.4947044,19.97121006,19.42612838,18.85308447,18.27106221,17.72673355,17.26924499,16.92402185,16.67508988,16.45811211,16.16552866,15.6811525,14.92693777,13.88875806,12.62148709,11.24062543,9.886635523,8.678344582,7.688886525,6.945496093,6.432564469,6.113202695,5.95432668,5.938671272,6.056351084,6.300771568,6.658830306,7.105220232,7.60539026,8.131290323,8.66858493,9.218137454,9.784024446,10.3523678,10.86968325,11.24464967,11.3605356,11.11394996,10.46035901,9.443088598,8.180699257,6.840642036,5.575617324,4.458366031,3.455743751,2.445442099,1.255088663,-0.264755746,-2.175104019,-4.439608362,-6.940183901,-9.518217829,-12.03120101,-14.39019552,-16.54507987,-18.46870043,-20.13245746,-21.48835065,-22.470875,-23.03259772,-23.16718406,-22.919922,-22.37970145,-21.66433014,-20.88740777,-20.13589057,-19.45678455,-18.85952582,-18.31634575,-17.77183238,-17.14960506,-16.37263769,-15.37378256,-14.10977769,-12.57045013,-10.78837203,1
6.345241504,6.72442585,7.115296406,7.513825553,7.923885118,8.344534115,8.757410853,9.131197453,9.423868495,9.599791145,9.633226498,9.516191784,9.250096468,8.844951488,8.306615855,7.645114336,6.880214462,6.049425926,5.205262382,4.419477869,3.772229524,3.331431536,3.135289782,3.180386532,3.409023114,3.711146937,3.948579158,3.988423287,3.746558067,3.227389797,2.535724895,1.859627274,1.423318692,1.412394488,1.906647296,2.849258941,4.054057571,5.262046403,6.227630575,6.795363193,6.942243067,6.775505045,6.472648779,6.210028703,6.09974341,6.159224376,6.314039441,6.448976298,6.452308929,6.254240817,5.840770632,5.2511335,4.547576449,3.794025432,3.04071666,2.315745775,1.633991147,1.015099386,0.494219282,0.114371197,-0.085107731,-0.10957909,-0.045784867,-0.066054595,-0.362533288,-1.017942204,-1.818715263,-2.098611759,-0.724206216,3.672988151,12.20045643,25.05648204,40.97080229,57.02271266,69.059951,72.71811414,64.75455778,44.24805808,13.2062892,-23.72673751,-60.39749658,-90.70840672,-110.1044364,-116.5332209,-110.6023918,-95.01773557,-73.60611201,-50.28994844,-28.28354272,-9.685929514,4.554532635,14.42079763,20.49847399,23.64156741,24.72058798,24.4750527,23.45317929,22.01963094,20.4043352,18.75228918,17.1564096,15.67833882,14.35632682,13.19743401,12.17969356,11.26687033,10.42119594,9.615302439,8.850524694,8.156775054,7.571630792,7.13346093,6.864715772,6.757504049,6.772785558,6.8667721,6.994514391,7.127872364,7.261440199,7.414431419,7.61159406,7.877977661,8.226347895,8.659041957,9.168735618,9.743906086,10.37193836,11.04345853,11.74192542,12.43455537,13.06775442,13.57101201,13.86037346,13.86011548,13.52450568,12.85161633,11.87634688,10.66435793,9.28509416,7.786646564,6.183625969,4.463951651,2.594257513,0.54157456,-1.713364468,-4.172550146,-6.82070466,-9.623586914,-12.53100692,-15.46844033,-18.3295518,-20.9851792,-23.29603891,-25.13472595,-26.41525903,-27.11728718,-27.28227674,-27.00259084,-26.39011184,-25.54421169,-24.52720946,-23.36348996,-22.04391836,-20.55341691,-18.89409353,-17.09730405,-15.22138837,-13.34965439,-11.56942471,-9.952121109,-8.54231348,-7.352963221,-6.360464369,-5.514816765,-4.75424808,1
5.286054815,4.853924566,4.257868967,3.614125988,3.047591617,2.65417884,2.486039525,2.533919321,2.725330626,2.948866746,3.087215524,3.040884474,2.766550083,2.293801485,1.707288065,1.122049519,0.652445183,0.370679391,0.285577713,0.358163703,0.518174532,0.683225085,0.786731775,0.790917281,0.675435544,0.438338757,0.103378057,-0.289847375,-0.685841966,-1.00832452,-1.172869162,-1.107563038,-0.75795721,-0.110367719,0.791217125,1.838844344,2.871349698,3.691723998,4.122093667,4.048009592,3.454889395,2.433664235,1.153432407,-0.20520649,-1.504533756,-2.686261884,-3.780545988,-4.875155861,-6.064736411,-7.406973004,-8.90749706,-10.51809611,-12.1592641,-13.74836612,-15.22235281,-16.53504188,-17.6418513,-18.48495929,-18.980603,-19.03069227,-18.55312075,-17.54200624,-16.10389946,-14.46515191,-12.89588541,-11.56933841,-10.34744742,-8.611824766,-5.229958666,1.210325733,11.89742667,27.10598283,45.58378404,64.32192072,78.95696224,84.81542651,78.31850607,58.28409,26.60583891,-12.00186588,-51.16657237,-84.49570887,-107.1575679,-116.8943026,-114.1997326,-101.7202929,-83.22738739,-62.54195188,-42.72238495,-25.68104659,-12.19562683,-2.180692927,4.946425263,9.93717576,13.48561999,16.11404098,18.15918274,19.81486919,21.17519238,22.28302429,23.16365166,23.83153037,24.28648372,24.53333714,24.59388537,24.51191899,24.3671908,24.27463791,24.34768034,24.65243895,25.18057177,25.82603745,26.39554354,26.65866672,26.42419122,25.59334765,24.19574514,22.38031217,20.37361244,18.40764167,16.66526812,15.24787287,14.18099757,13.43787547,12.97703368,12.76912567,12.80251115,13.07219006,13.55831143,14.21247958,14.95532019,15.69173993,16.32716055,16.79370408,17.06314216,17.14665536,17.07889638,16.90277884,16.64664569,16.30788797,15.84635539,15.19438405,14.27159466,13.00467582,11.34425361,9.276650302,6.826104927,4.048926006,1.025475222,-2.143357918,-5.336979876,-8.425026717,-11.27424664,-13.75674991,-15.76822706,-17.24842857,-18.17853979,-18.57757027,-18.4998637,-18.0205013,-17.21761812,-16.17454281,-14.97678696,-13.702158,-12.41356174,-11.15972875,-9.966208251,-8.838758752,-7.769678571,-6.751378112,-5.772389156,-4.821978468,-3.884492081,-2.946556346,-1.996891804,1
-1.961703394,-2.717407904,-3.434885928,-4.103564961,-4.721020206,-5.28315175,-5.780534035,-6.185547137,-6.4493772,-6.497512406,-6.242219762,-5.59995027,-4.523059821,-3.022404152,-1.189131608,0.81429256,2.778322216,4.486631909,5.762455966,6.518946686,6.771706502,6.631556553,6.277400744,5.909878739,5.688276676,5.700354133,5.950935404,6.370907912,6.838088719,7.222728889,7.415524016,7.342096202,6.963838077,6.283433894,5.335154719,4.176444707,2.883886448,1.559576784,0.318900436,-0.723252194,-1.467582462,-1.848239113,-1.859330382,-1.555248804,-1.040569216,-0.451606366,0.070814745,0.408645567,0.474049938,0.208801925,-0.411660199,-1.378139805,-2.639221745,-4.093912559,-5.586916283,-6.931508464,-7.940266838,-8.469166592,-8.444491673,-7.88410278,-6.895139834,-5.667357942,-4.447351599,-3.506769659,-3.072535606,-3.212082501,-3.680371294,-3.795879148,-2.433333286,1.772106474,9.97277095,22.49782217,38.29162454,54.69315181,67.77192827,73.24883124,67.76604069,50.09602293,21.80865998,-12.90857889,-48.25413909,-78.30049409,-98.46927184,-106.5209025,-102.7856135,-89.67267067,-70.74501351,-49.71296035,-29.64018831,-12.52918989,0.709907258,10.04789027,16.00884643,19.35130049,20.83546306,21.0983504,20.60518735,19.66501299,18.47372379,17.15418298,15.79012222,14.44453895,13.17111995,12.01606655,11.02182423,10.22067073,9.642003537,9.305938465,9.214601101,9.343648763,9.650970936,10.06659036,10.50265334,10.87642109,11.13166994,11.23952101,11.21671707,11.12166207,11.03501143,11.03598853,11.19635869,11.56088017,12.13928924,12.90742307,13.8198758,14.809765,15.79971444,16.71802963,17.51099228,18.13712428,18.56707652,18.77718673,18.73755338,18.40179647,17.7248172,16.68259809,15.2890898,13.60095457,11.72004524,9.762376716,7.819136875,5.929644177,4.07836447,2.195475979,0.181877178,-2.050778678,-4.555236042,-7.341953234,-10.37021287,-13.54957993,-16.76121184,-19.86657239,-22.71433442,-25.15870596,-27.08147755,-28.40025133,-29.0914436,-29.19883841,-28.82866019,-28.12465522,-27.24182363,-26.30009386,-25.36351431,-24.43320666,-23.46540686,-22.3996654,-21.19893729,-19.85807296,-18.39694097,-16.84193788,-15.21004406,-13.49664287,-11.69833042,-9.842068265,-8.005441099,1
-4.194740085,-3.456964784,-2.774942632,-2.258252216,-1.971916928,-1.927834529,-2.086935962,-2.383179571,-2.747442329,-3.126538512,-3.484877914,-3.815441822,-4.12596916,-4.436587504,-4.765031318,-5.123764088,-5.496780448,-5.849751148,-6.126047902,-6.270415914,-6.243229573,-6.050359793,-5.736461734,-5.382359309,-5.072444016,-4.873058538,-4.802582121,-4.827537873,-4.860755883,-4.786976063,-4.478578567,-3.825332798,-2.75920028,-1.27913569,0.548238456,2.588953772,4.667806201,6.612043518,8.290860168,9.641648108,10.67361307,11.44992222,12.0426993,12.50862192,12.86936542,13.13040045,13.29884293,13.41521115,13.54528307,13.75851036,14.07905757,14.45967379,14.76741747,14.82147631,14.45979624,13.61006408,12.32677583,10.7977442,9.289922214,8.060596072,7.268956888,6.919075527,6.838434891,6.735204761,6.313970832,5.433069114,4.269202308,3.436381623,3.953802867,7.012541174,13.5406828,23.65544123,36.19735254,48.60060584,57.27732063,58.50187124,49.56153407,29.79666418,1.115055593,-32.28068183,-64.89498225,-91.32199753,-107.5668239,-111.8932578,-104.9548443,-89.28476395,-68.41924311,-45.98037144,-24.947926,-7.294549462,6.0583571,15.05747356,20.25254236,22.49405359,22.7058802,21.72293316,20.20339201,18.58341321,17.10286294,15.83771192,14.75031917,13.7447212,12.71908346,11.59615767,10.35770085,9.055691148,7.800861933,6.742214673,6.034670825,5.789883882,6.048356903,6.76994062,7.835411445,9.070639103,10.29843726,11.3770495,12.22371465,12.83550612,13.28618008,13.68608786,14.14243244,14.73466255,15.48103283,16.33242947,17.20105815,17.99314237,18.62904402,19.07040427,19.31614396,19.38122896,19.27796856,19.00789974,18.55650933,17.91113263,17.07477267,16.0750148,14.96052817,13.78676132,12.59407978,11.39698755,10.17452168,8.874714138,7.437115181,5.812125198,3.977526115,1.946615181,-0.235897908,-2.520618719,-4.868544253,-7.267117612,-9.719364471,-12.22809242,-14.75848608,-17.22312273,-19.47848473,-21.36170312,-22.72399074,-23.47990974,-23.62795965,-23.25277125,-22.48768769,-21.48075865,-20.35556174,-19.19307231,-18.01888934,-16.81952003,-15.56458031,-14.22171602,-12.76805388,-11.20989903,-9.580395513,-7.924529919,-6.29923281,-4.766941686,-3.37863486,1
-0.798877612,-0.613514722,-0.235980194,0.272198131,0.830421232,1.353562326,1.781178701,2.083353479,2.255579189,2.3094379,2.275865388,2.189559688,2.090071194,2.018325483,2.008768411,2.071233594,2.191382658,2.331071586,2.438723971,2.469628305,2.40836094,2.2742567,2.108368992,1.956355968,1.840749094,1.741799992,1.596568958,1.328819278,0.880635483,0.252695997,-0.473792446,-1.141263199,-1.556534768,-1.543562817,-1.003623052,0.051986033,1.496259876,3.120355775,4.683950173,5.979819597,6.868713842,7.308176603,7.340285226,7.075399262,6.645822323,6.177057775,5.739992745,5.343460514,4.92458569,4.385511758,3.628318073,2.615964221,1.391167983,0.087878448,-1.110232791,-2.018485292,-2.518136817,-2.578899808,-2.267711079,-1.720993126,-1.106214294,-0.585465912,-0.316201593,-0.448871281,-1.098973863,-2.287010001,-3.815528351,-5.118890591,-5.195399204,-2.738592607,3.50192335,14.14771937,28.58683907,44.62834522,58.6852292,66.54805576,64.58810914,51.01195681,26.68380069,-4.860389438,-38.24626842,-67.65744257,-88.32060122,-97.59060422,-95.31572077,-83.47844488,-65.36133172,-44.58137975,-24.29341263,-6.724995912,6.939056514,16.42771118,22.1342029,24.84300868,25.47833238,24.91459784,23.85234808,22.74669327,21.79979611,21.01322513,20.27469307,19.44181633,18.42240545,17.21699515,15.92291392,14.69258282,13.68684068,13.02195205,12.72885854,12.73589382,12.89730562,13.03180322,12.97803426,12.65158682,12.07316975,11.35440542,10.66223773,10.15486632,9.923204399,9.96770135,10.21032583,10.53302783,10.83468283,11.0680071,11.24894996,11.43775674,11.70283936,12.08340851,12.5712256,13.10767832,13.60189363,13.96092889,14.11092105,14.01540996,13.67681492,13.13129355,12.42282916,11.59674739,10.68138998,9.691310885,8.620629722,7.459212332,6.189226757,4.788705958,3.225122958,1.468684951,-0.507192904,-2.719153425,-5.15651251,-7.772512184,-10.49709659,-13.24078769,-15.90109622,-18.37900835,-20.58691079,-22.44291748,-23.88090154,-24.85299325,-25.34319641,-25.36972561,-24.99023283,-24.28790573,-23.35773497,-22.27484296,-21.08929686,-19.82157496,-18.47091789,-17.03858267,-15.55267798,-14.06089214,-12.62257738,-11.29343277,-10.0881735,-8.961806476,-7.833567089,1
-6.162206181,-8.436025071,-10.64636502,-12.46240553,-13.61386676,-13.97596868,-13.58687987,-12.62786725,-11.36601369,-10.08027324,-8.995766813,-8.265350977,-7.963264498,-8.08273092,-8.554003888,-9.268086021,-10.09575984,-10.91429781,-11.64354693,-12.2506856,-12.73814621,-13.11529255,-13.37133521,-13.45349133,-13.28511577,-12.79773383,-11.96862445,-10.83474901,-9.490242775,-8.044835146,-6.579534341,-5.114638102,-3.611110042,-1.99132397,-0.186946029,1.814600054,3.936380179,6.011262013,7.81566317,9.123983994,9.770406028,9.708852285,9.035821785,7.956302166,6.72075808,5.547803495,4.552412673,3.72227751,2.957540243,2.144805803,1.229403049,0.258491109,-0.63630816,-1.299436273,-1.627924061,-1.61662927,-1.348797072,-0.934830186,-0.447875015,0.116680397,0.824482949,1.719728108,2.734685878,3.656681374,4.192214362,4.15018199,3.694501726,3.535766443,4.923420435,9.346578899,17.93934088,30.78352998,46.36877144,61.52589252,72.00180327,73.60698911,63.55399159,41.55673466,10.2226277,-25.46057753,-59.39489332,-85.93701257,-101.2693773,-104.1456283,-95.84645162,-79.46666165,-58.88010852,-37.73860209,-18.76383949,-3.454439376,7.80978636,15.42912972,20.18044431,22.86052127,24.07055883,24.17403148,23.36868884,21.79743023,19.65883241,17.25565792,14.96295929,13.14295052,12.0603429,11.81129842,12.29704953,13.25596724,14.34247278,15.22044996,15.64976489,15.54559169,14.97974538,14.13538318,13.22404916,12.40969109,11.76209607,11.26782096,10.86830838,10.51807953,10.21725582,10.00753879,9.930721452,9.993054124,10.15072556,10.33374656,10.48753491,10.61492026,10.7821733,11.0845903,11.58235145,12.25259769,12.9751784,13.56769222,13.84662284,13.7016364,13.13427204,12.24852757,11.20347531,10.1635081,9.240148382,8.461136891,7.777013345,7.084001658,6.240667632,5.100840486,3.544548973,1.496570824,-1.056066974,-4.043750027,-7.316919124,-10.66713916,-13.85902211,-16.67479617,-18.95964723,-20.64361927,-21.73552731,-22.29592129,-22.39676646,-22.08951074,-21.39980801,-20.35265544,-19.00511386,-17.4631865,-15.87310215,-14.38664267,-13.10374401,-12.03884148,-11.12528791,-10.24813,-9.290015038,-8.188437823,-6.953285454,-5.661291085,-4.433144525,-3.394347738,-2.62594078,1
4.516826742,3.442571448,2.17264633,0.73628326,-0.741793237,-2.053761732,-2.978495278,-3.362699673,-3.172810269,-2.494896731,-1.49919755,-0.369708794,0.743749713,1.748017228,2.590725191,3.244995291,3.687225172,3.908440907,3.930655797,3.81613688,3.656096057,3.554603127,3.590581769,3.790032791,4.129391526,4.556127727,5.007965284,5.439129025,5.826850108,6.164121674,6.45022133,6.695630239,6.923029093,7.183518354,7.548123382,8.082807457,8.805877265,9.662561053,10.51650023,11.19214992,11.53859876,11.49771322,11.12913001,10.58617026,10.03904751,9.599114092,9.258905752,8.8981469,8.341753527,7.457684281,6.218791039,4.731778082,3.199807104,1.845470869,0.817400423,0.1577625,-0.195108084,-0.361341579,-0.458368324,-0.554666359,-0.690587149,-0.918046455,-1.347616711,-2.151008111,-3.487842923,-5.336571563,-7.300549145,-8.45986075,-7.419174683,-2.625456897,7.049530509,21.61904305,39.42733023,57.07727569,70.00096075,73.62462251,64.78901964,42.95259554,10.66185146,-26.91705571,-63.30145683,-92.37210651,-109.8683096,-114.2191913,-106.5448306,-89.92685635,-68.31302254,-45.4840208,-24.35163398,-6.673530797,6.849942562,16.26910451,22.08232553,25.00127105,25.79304855,25.20348945,23.91222575,22.45092824,21.13786348,20.06216091,19.12264742,18.11076604,16.8464626,15.27432734,13.49463974,11.71303515,10.16363424,9.006105255,8.281424411,7.915583232,7.781978115,7.758161578,7.782568709,7.849219324,7.982406097,8.194178924,8.461940723,8.72187583,8.91502589,9.023679852,9.085223497,9.180281056,9.397259119,9.773305099,10.27056565,10.79844202,11.25077866,11.55824842,11.716794,11.77572254,11.78814732,11.77977628,11.71900945,11.54109601,11.18922482,10.65290216,9.956602012,9.142247492,8.21593993,7.11489822,5.716584817,3.900997409,1.605445578,-1.13300219,-4.181822813,-7.357220641,-10.49618812,-13.49767707,-16.33016167,-18.99264872,-21.47809737,-23.74178034,-25.71345869,-27.31420882,-28.50232775,-29.27827373,-29.67141587,-29.70201874,-29.38236047,-28.70535265,-27.6759914,-26.34458069,-24.82082048,-23.23522418,-21.70541533,-20.29097975,-18.96758873,-17.64959834,-16.24013869,-14.67302672,-12.93622047,-11.08353164,-9.204456664,-7.395172148,-5.741410922,1
0.78095029,1.135091589,1.358599088,1.450902262,1.430034028,1.319273488,1.129751299,0.861640984,0.514958961,0.106692229,-0.320855613,-0.691893857,-0.919347024,-0.933874536,-0.719632483,-0.324130319,0.135615306,0.516570284,0.70040819,0.644906952,0.387827794,0.042995921,-0.261710581,-0.439740338,-0.494722817,-0.504234068,-0.593693016,-0.86323433,-1.340578825,-1.946597989,-2.522432174,-2.868159474,-2.810559658,-2.24726977,-1.176964975,0.307044497,2.035521169,3.799143489,5.381303778,6.59569902,7.317265786,7.51134314,7.24417742,6.672436097,5.987052691,5.34668327,4.810662602,4.315163559,3.696408262,2.785421403,1.501535497,-0.085833919,-1.767093466,-3.254626777,-4.296601328,-4.760996325,-4.658124436,-4.101672256,-3.250591831,-2.241680397,-1.171770593,-0.136678962,0.715482801,1.164034183,0.95045898,-0.086952908,-1.803156452,-3.560966389,-4.165343844,-2.025532296,4.385940422,15.86464854,31.82182976,49.90577471,66.17221264,75.91329983,74.95006603,60.98084195,34.5352526,-0.880674679,-39.55716279,-75.01259557,-101.5889483,-115.7388915,-116.6065117,-105.8268734,-86.73456832,-63.34647113,-39.40871883,-17.76491804,-0.100480171,12.98805965,21.73777563,26.86952471,29.28327981,29.82779597,29.18012771,27.81860254,26.07589126,24.18188997,22.31248547,20.60706723,19.15464626,17.97355659,17.03012636,16.2611989,15.60198038,15.0166296,14.49555456,14.02837185,13.57570016,13.06521334,12.41227953,11.5683911,10.56793242,9.546024552,8.710388767,8.270535458,8.367112439,9.013992564,10.09812715,11.41956381,12.76607432,13.97099425,14.9573324,15.72925655,16.34546536,16.87859429,17.38354753,17.87556351,18.3353865,18.71857318,18.96516159,19.01743672,18.82879251,18.36486301,17.6015949,16.53136373,15.15392868,13.48174308,11.53981426,9.371410507,7.025733043,4.556864873,2.005941796,-0.603117877,-3.270510562,-6.002885333,-8.804392428,-11.65266644,-14.489035,-17.21682318,-19.72179995,-21.88506302,-23.61015227,-24.84030016,-25.56216932,-25.79830586,-25.60073331,-25.03408308,-24.16261127,-23.04279546,-21.71682145,-20.21334356,-18.55215819,-16.74985142,-14.82943655,-12.82702169,-10.7895165,-8.773259164,-6.834648117,-5.018187885,-3.354221906,-1.856896045,-0.519411427,1
5.328185805,5.11847093,4.86284718,4.54144596,4.138285042,3.654576019,3.11048795,2.554823401,2.037704255,1.59339416,1.228791622,0.931400967,0.676283348,0.456532511,0.295028736,0.237379747,0.324486098,0.562112275,0.89513843,1.213042813,1.390393748,1.340115286,1.058207372,0.634139164,0.223775862,-0.011347446,0.043163198,0.428306235,1.128015588,2.107978934,3.363340277,4.940392925,6.914271982,9.338281892,12.19007533,15.3374189,18.53826059,21.49692959,23.93714408,25.6735417,26.64474165,26.90572064,26.5750056,25.77296234,24.56661315,22.96479233,20.94662206,18.50737507,15.69141799,12.60931753,9.406893826,6.223895197,3.151941915,0.22941845,-2.548258246,-5.187437159,-7.663812169,-9.897637228,-11.77564557,-13.19427088,-14.12537094,-14.66528274,-15.05658083,-15.63337801,-16.68149796,-18.22705563,-19.82968377,-20.4584432,-18.59166726,-12.61765409,-1.498606664,14.5153482,33.37358785,51.25294829,63.27843365,64.8296545,52.99944719,27.74207033,-7.790881382,-47.90252631,-85.79902558,-115.2927923,-132.2527442,-135.3408008,-125.8964455,-107.1521216,-83.17394547,-57.85416129,-34.226175,-14.19083064,1.432414975,12.67334504,20.0998967,24.53725598,26.86162247,27.85400741,28.11025742,28.01474603,27.74849863,27.32782693,26.67043596,25.67101679,24.26315348,22.45827591,20.34979724,18.09265218,15.8613518,13.80424182,12.02068209,10.55775323,9.410905012,8.542279291,7.902927205,7.437566983,7.088583564,6.813246478,6.588888941,6.417348052,6.33130312,6.393315675,6.671887712,7.228815947,8.100316987,9.284692748,10.73813692,12.39033774,14.14682022,15.90696874,17.5740841,19.05928366,20.27915345,21.16640874,21.66149389,21.71741776,21.30695105,20.43226563,19.11888343,17.42311558,15.42073847,13.1894524,10.77825501,8.201661855,5.433162319,2.425046284,-0.855558197,-4.372546681,-8.003990553,-11.54634638,-14.76341221,-17.45384016,-19.52149133,-20.99841205,-22.0285312,-22.79582862,-23.44640442,-24.03218962,-24.50189274,-24.72642806,-24.56642059,-23.93244067,-22.81500255,-21.28197871,-19.4604817,-17.49245201,-15.4942683,-13.5349527,-11.63322388,-9.758068154,-7.859212542,-5.903423017,-3.900510437,-1.908020445,-0.032060075,1.609809033,2.933850974,1
4.432976499,3.808119447,3.088135354,2.305912997,1.52000617,0.789525854,0.165336521,-0.331876597,-0.714438349,-1.030092903,-1.339882662,-1.710325237,-2.189885465,-2.804752109,-3.539485966,-4.344447091,-5.137358276,-5.826646564,-6.325202254,-6.582212173,-6.591402459,-6.399804699,-6.080384035,-5.705095734,-5.313472237,-4.904754039,-4.440765516,-3.885720448,-3.242321207,-2.570262427,-1.969973604,-1.545926823,-1.357386398,-1.383824623,-1.522278383,-1.627053428,-1.563474873,-1.249843989,-0.687293622,0.039582319,0.792887802,1.422038577,1.791920851,1.815286221,1.46644188,0.781767341,-0.160783208,-1.261189558,-2.428717874,-3.59864292,-4.743468262,-5.861681246,-6.963278458,-8.049185989,-9.103910881,-10.09564014,-10.98439126,-11.73341881,-12.32234289,-12.75888454,-13.08588547,-13.39721546,-13.84278137,-14.61351138,-15.87275224,-17.62940453,-19.5627116,-20.88120752,-20.3084191,-16.32013371,-7.662882169,5.968404163,23.33237752,41.42841798,55.91749644,62.19024046,56.76161053,38.54848219,9.508358059,-25.66097067,-60.70832496,-89.45268565,-107.3355349,-112.3837431,-105.3419458,-89.04616685,-67.40505585,-44.33300714,-22.94781083,-5.186515671,8.180887755,17.30719839,22.91064299,25.92294253,27.23667507,27.56637642,27.38810249,26.95936259,26.38816643,25.70158488,24.90264274,24.01652724,23.09791342,22.20954412,21.39842975,20.67529123,20.00328119,19.32318458,18.59625688,17.83630763,17.12767396,16.61322765,16.43892295,16.69458966,17.37804657,18.39159918,19.57941019,20.80451339,22.01194004,23.25444657,24.66472485,26.38964871,28.49584349,30.90159251,33.37052031,35.57212805,37.17388777,37.94731891,37.83786966,36.96656492,35.56722842,33.90538294,32.19591675,30.559766,29.02070066,27.54410451,26.07506295,24.57186641,23.0108883,21.37543313,19.63499628,17.73535235,15.59843088,13.13949853,10.29946823,7.067905617,3.496530185,-0.303053919,-4.175222269,-7.950897734,-11.47204428,-14.60946623,-17.26823726,-19.38782212,-20.93740831,-21.91222967,-22.33540962,-22.26196303,-21.77604021,-20.98081379,-19.98162945,-18.86493666,-17.68172471,-16.44099978,-15.12157448,-13.69185386,-12.13504633,-10.4688145,-8.754301299,-7.081297458,-5.548925588,-4.235943787,-3.1705039,-2.315262168,-1.575138228,1
-11.87952395,-13.82628271,-15.44478765,-16.5911505,-17.16392559,-17.12604567,-16.5074769,-15.40601946,-13.9625073,-12.33302041,-10.66795921,-9.099882752,-7.726595182,-6.615714922,-5.80232208,-5.282269754,-5.008948776,-4.90797623,-4.884352646,-4.847616865,-4.738229471,-4.546268451,-4.306954459,-4.089640101,-3.970928453,-4.008371278,-4.219886851,-4.577061038,-5.008314293,-5.406297131,-5.642143378,-5.590122327,-5.156920401,-4.310567188,-3.111855141,-1.724040618,-0.381238762,0.67234825,1.255450916,1.314422667,0.95366259,0.40540249,-0.052247654,-0.190672703,0.094772004,0.752332232,1.59517645,2.378968264,2.885911162,3.000712366,2.742653235,2.259329927,1.77156307,1.509753544,1.63469225,2.194716874,3.116918072,4.242915542,5.376266826,6.349223861,7.057992245,7.456270354,7.514238557,7.191313285,6.427061001,5.207515506,3.708371304,2.459075479,2.411951075,4.8474818,11.01854465,21.58416725,36.00558926,52.18245534,66.54932416,74.78014777,72.95097953,58.80882407,32.68726984,-2.283663524,-40.83301901,-76.84302227,-104.844846,-121.2380701,-124.9049765,-117.0870029,-100.7046569,-79.4279424,-56.80458212,-35.63255444,-17.68093498,-3.700747739,6.366638543,13.10526712,17.32144769,19.80885945,21.18725292,21.84806873,21.96974352,21.6034493,20.75872189,19.49195246,17.93586823,16.28874565,14.76260195,13.53524592,12.6950431,12.22749653,12.03692357,11.98960238,11.95264412,11.8368405,11.61579066,11.31654778,10.99052961,10.69324303,10.45941332,10.29120311,10.15777951,10.01589875,9.817997015,9.526139619,9.114389826,8.572708823,7.898989093,7.09702494,6.170418819,5.126895858,3.982952844,2.767884965,1.530367058,0.341376172,-0.717496208,-1.57344664,-2.180608591,-2.541888448,-2.716964502,-2.811780494,-2.953764903,-3.264328335,-3.825928097,-4.672208557,-5.78596467,-7.116579392,-8.59657391,-10.17141736,-11.8005815,-13.46617907,-15.16686854,-16.91096995,-18.6948371,-20.5048851,-22.30351503,-24.01962418,-25.55615889,-26.80769114,-27.67195207,-28.08375304,-28.04730911,-27.6375047,-26.98512277,-26.24967011,-25.5702677,-25.01692574,-24.5719057,-24.13905966,-23.57193324,-22.71255989,-21.43770525,-19.69138793,-17.49243993,-14.92726268,-12.13542823,-9.27550492,-6.480408633,1
10.5245231,9.981826749,9.894452271,10.0295297,10.12832097,9.983422679,9.488345223,8.659431709,7.624088883,6.568752406,5.682657581,5.112618621,4.931942641,5.132840222,5.634304646,6.30665749,7.001884139,7.594465357,8.002844022,8.217740057,8.292718382,8.315584262,8.360979308,8.465935916,8.600633233,8.681891926,8.616703897,8.34799693,7.877718995,7.280346775,6.688703741,6.251798528,6.101554862,6.321964486,6.927236881,7.854222079,8.970567021,10.09151657,11.02415295,11.61861135,11.8042804,11.60929461,11.14502093,10.55205397,9.938951056,9.340577168,8.711443864,7.955514121,6.984027333,5.754220856,4.291491542,2.668663452,0.976753429,-0.719110411,-2.38067801,-3.99253554,-5.534625562,-6.972994312,-8.244756967,-9.290341377,-10.08312029,-10.66156292,-11.13942576,-11.70034772,-12.52025535,-13.64637654,-14.84708794,-15.48867749,-14.51567932,-10.65262861,-2.841059431,9.181242348,24.35212473,40.06079741,52.46373935,57.37595693,51.48222661,33.49865932,4.839335933,-30.5189372,-66.99059444,-98.77771584,-121.2887241,-132.1061656,-131.2560567,-120.7706064,-103.8571679,-83.95770302,-64.00996246,-46.03797954,-31.10053074,-19.45393368,-10.82642718,-4.675339976,-0.383677868,2.635396593,4.883924115,6.767643957,8.587881893,10.53909242,12.70114743,15.05466293,17.49483646,19.87229433,22.03364891,23.86489921,25.30496958,26.36380025,27.10339548,27.61474737,27.97994159,28.25550938,28.45147904,28.54763267,28.51238018,28.33841747,28.05642797,27.73733689,27.45906817,27.27334189,27.17234407,27.07941408,26.86341554,26.38139503,25.52918717,24.27196209,22.65929552,20.8126526,18.89210179,17.03960099,15.34797622,13.83367885,12.43870945,11.0529971,9.564886886,7.891693606,6.008333631,3.946733971,1.775404248,-0.435267263,-2.636423015,-4.816007079,-6.988358263,-9.17442324,-11.38475252,-13.60646141,-15.80110253,-17.92002676,-19.91844537,-21.7628496,-23.43743109,-24.94222207,-26.28208206,-27.4572529,-28.45511011,-29.24134071,-29.75797184,-29.92801289,-29.66550937,-28.89083992,-27.5506416,-25.63346207,-23.1787261,-20.2743374,-17.04487574,-13.63150853,-10.1676397,-6.764025004,-3.501375118,-0.431919566,2.412796995,4.998990932,7.287011781,9.224220614,10.74850951,1
5.493720655,6.719719535,7.926637484,9.03354447,9.937247967,10.52764138,10.70889078,10.43456483,9.715413711,8.616435452,7.243939478,5.726435047,4.190420036,2.747623108,1.488851421,0.479086676,-0.248350941,-0.695497913,-0.896626266,-0.912393373,-0.828534065,-0.740376243,-0.739791087,-0.910306823,-1.326086276,-2.032084064,-3.038026454,-4.305503772,-5.731889903,-7.139535054,-8.298991955,-8.963635451,-8.923961631,-8.067644552,-6.425281805,-4.171193136,-1.58388201,1.02461144,3.38775282,5.341849166,6.837525674,7.911054805,8.632762047,9.054250129,9.185131615,9.001008075,8.468007693,7.568697906,6.326050981,4.800096585,3.075129756,1.247113966,-0.583997128,-2.328816144,-3.91143922,-5.27132703,-6.369762656,-7.189381685,-7.729024684,-8.004183263,-8.061261231,-7.988487909,-7.928856128,-8.057409218,-8.501409361,-9.190813193,-9.692358732,-9.101861869,-6.108909714,0.677854459,12.15729108,28.08112117,46.57916018,64.14054741,76.23647307,78.49600141,68.07426507,44.74110729,11.26919233,-27.10710964,-63.99552765,-93.44567849,-111.3279152,-116.1120197,-108.8435526,-92.46505674,-70.82761399,-47.73355813,-26.2144667,-8.200141881,5.477983598,14.86946282,20.599099,23.54344299,24.58913525,24.47419963,23.7245495,22.65672859,21.42684933,20.09430341,18.68593897,17.22748345,15.76170983,14.35590455,13.08401689,12.00285372,11.14612982,10.51269142,10.0659866,9.756224735,9.54269364,9.400128317,9.334398061,9.370323598,9.525052635,9.794605768,10.15671623,10.56466101,10.97084343,11.35835818,11.74827795,12.18671889,12.73568037,13.44435574,14.31804963,15.31052544,16.33981273,17.30477257,18.11525705,18.71645161,19.09244999,19.25178012,19.21529622,18.98837409,18.54965295,17.86042986,16.87905923,15.57114195,13.93398073,11.9970565,9.80750172,7.420762656,4.88855627,2.242286752,-0.503858037,-3.342353134,-6.264780687,-9.2502064,-12.25667808,-15.22009794,-18.05963387,-20.68855438,-23.02145711,-24.98212209,-26.51352131,-27.5814396,-28.17633561,-28.31695741,-28.0456889,-27.41986486,-26.5050873,-25.3565704,-24.01393595,-22.504601,-20.84826472,-19.06087534,-17.17730191,-15.24566927,-13.31758742,-11.43800041,-9.644549077,-7.946004783,-6.336391665,-4.80724246,-3.36313026,1
3.55988222,3.611690158,3.589767522,3.508307414,3.389220193,3.262434077,3.15075786,3.064849476,2.999344914,2.935972166,2.843026025,2.691686375,2.460465041,2.143351902,1.747190781,1.300692551,0.842608243,0.41633146,0.051610666,-0.235172488,-0.455276271,-0.643209664,-0.848100166,-1.110998697,-1.459722231,-1.896316257,-2.392563286,-2.892518318,-3.320237583,-3.583255038,-3.578846921,-3.208458038,-2.399937781,-1.135594976,0.525116486,2.435691732,4.37936116,6.115973115,7.444078378,8.254685647,8.555161797,8.454539258,8.112038725,7.669880493,7.201581694,6.69141217,6.05499077,5.184488408,4.000224564,2.48401621,0.698367222,-1.231488839,-3.150750436,-4.909267474,-6.386280502,-7.510199814,-8.254983158,-8.620987115,-8.61723667,-8.25743899,-7.572752878,-6.638023757,-5.607497254,-4.731207318,-4.301168287,-4.518472618,-5.304889749,-6.110381451,-5.812822732,-2.869656431,4.231252895,16.30195842,32.76451883,51.22263573,67.63276034,77.17084261,75.58807984,60.62635874,33.00834709,-3.457819816,-42.75589586,-78.2065603,-104.1401588,-117.1898561,-116.8147845,-104.9744332,-85.23272166,-61.6732275,-37.96197237,-16.75849792,0.446716397,13.20313188,21.80687567,26.97863599,29.57962088,30.42839899,30.18757185,29.32674372,28.14035867,26.7932835,25.36350878,23.89413609,22.42397104,20.99276963,19.64084822,18.41035403,17.32945116,16.40997689,15.65421886,15.05435116,14.5903215,14.24667715,14.01421397,13.88208296,13.84059629,13.88206155,13.98044278,14.08665368,14.14405144,14.09852588,13.91349596,13.59958514,13.22893849,12.91587858,12.78920495,12.95889002,13.4778332,14.31544286,15.36890203,16.49033344,17.51652432,18.30231442,18.74761646,18.79984741,18.44951884,17.72318766,16.6685146,15.33987039,13.79072775,12.05939152,10.15993849,8.080889285,5.790270999,3.244702788,0.408083697,-2.726144769,-6.119352908,-9.681880971,-13.28224588,-16.75793309,-19.94789056,-22.71890914,-24.98532727,-26.70305044,-27.87404439,-28.52387219,-28.6791193,-28.35276887,-27.55745969,-26.30445971,-24.62176491,-22.57751144,-20.28753294,-17.89778037,-15.57204112,-13.46516492,-11.69144778,-10.30984412,-9.327075726,-8.698707676,-8.341318246,-8.15303138,-8.020105525,-7.82110796,-7.448394633,1
3.150654836,4.418699502,5.470832772,6.297512958,6.904957071,7.299359181,7.478550377,7.436085171,7.179354583,6.7233539,6.099855478,5.358774187,4.561276122,3.764093913,3.020291213,2.370228102,1.837780241,1.435141564,1.165375707,1.022889095,0.99222459,1.048606403,1.158411331,1.284426692,1.383649767,1.421538283,1.378407849,1.248514536,1.040879076,0.798755449,0.590649861,0.504417953,0.6389065,1.082151398,1.857148072,2.908804857,4.10509365,5.259078961,6.172262806,6.711551169,6.833914057,6.585320302,6.077156869,5.449627929,4.811477096,4.226534727,3.720330305,3.285880285,2.888714571,2.491553468,2.056308016,1.53949122,0.910772087,0.172274016,-0.643328635,-1.474437903,-2.237526897,-2.854123115,-3.272577836,-3.48282228,-3.530814373,-3.525062706,-3.637595253,-4.085506825,-5.05152966,-6.541869013,-8.215160127,-9.22579452,-8.212953696,-3.566020781,6.022919181,20.85508192,39.58033758,58.96972938,74.36938764,80.82083445,74.52664356,54.22116738,21.87914651,-17.57906824,-57.50340753,-91.21375218,-113.6535917,-122.4500738,-118.0944615,-103.3397215,-82.15465821,-58.61854238,-36.07699785,-16.7268905,-1.591385725,9.242237056,16.28624051,20.32995195,22.20012181,22.61402994,22.12827866,21.14000515,19.90852215,18.59452969,17.29529205,16.05981928,14.89731457,13.79903414,12.74896748,11.73785608,10.77254388,9.876018318,9.071282315,8.366301731,7.742578836,7.164374978,6.601061212,6.048041251,5.541678208,5.15619818,4.974097584,5.05104359,5.39678,5.971215854,6.70178527,7.515603193,8.364013671,9.226263306,10.10304566,10.99979586,11.90836384,12.80078173,13.6366507,14.36586171,14.92943803,15.26845101,15.32684696,15.05682515,14.43493697,13.47736837,12.23518615,10.78561994,9.215241867,7.597440587,5.980967744,4.388917727,2.822545049,1.258368618,-0.355255483,-2.101169163,-4.078170033,-6.367742626,-8.983711561,-11.82470221,-14.66725511,-17.20479349,-19.13388934,-20.24242011,-20.47690472,-19.9384274,-18.82424127,-17.32944721,-15.57184485,-13.56279079,-11.24140821,-8.543828234,-5.473579142,-2.133888929,1.296311514,4.620779359,7.685099358,10.41037602,12.78613709,14.8256068,16.51003345,17.76176587,18.45396539,18.45951275,17.70921578,1
-2.364088721,-4.796282068,-7.423441466,-10.07764584,-12.53151219,-14.56440123,-16.01955117,-16.85656806,-17.16861077,-17.16752217,-17.10281928,-17.17438162,-17.45766761,-17.88486377,-18.27438416,-18.42184986,-18.18988773,-17.57021463,-16.68351174,-15.73809615,-14.95413782,-14.49148269,-14.40062963,-14.61991979,-15.00017102,-15.35438977,-15.51548217,-15.3797018,-14.9204091,-14.16939929,-13.17453301,-11.95005603,-10.45686508,-8.609671219,-6.327045272,-3.591474703,-0.493249063,2.773634498,5.952533162,8.797273539,11.14415931,12.94025616,14.23307727,15.10976736,15.62987603,15.7632722,15.3849592,14.3000312,12.32937735,9.391311057,5.572053617,1.143101423,-3.458539006,-7.715924399,-11.13114549,-13.32586366,-14.11847756,-13.58061707,-12.03183503,-9.985686859,-8.054602369,-6.832554396,-6.762620125,-8.040172172,-10.55775786,-13.86775379,-17.14542734,-19.17956326,-18.44765517,-13.35930052,-2.731034642,13.56854572,34.01372817,55.19435507,72.23882543,79.93218164,74.25172182,53.82372453,20.7032465,-19.90958358,-60.96515831,-95.41139207,-117.9750952,-126.2936428,-121.0731084,-105.3833559,-83.47910107,-59.59447104,-37.05793681,-17.90853777,-2.945409108,7.96042714,15.4731415,20.45281757,23.72670425,25.96793233,27.64576988,29.03285229,30.22387232,31.18601967,31.82328901,32.04674455,31.8154051,31.16496803,30.19525062,29.033126,27.79416294,26.57071885,25.43450694,24.45024786,23.67788144,23.16190915,22.89894775,22.81623824,22.77529543,22.62844403,22.28276761,21.76055865,21.20841977,20.86252083,20.95520431,21.6276402,22.87719272,24.56759394,26.47235666,28.34934148,30.00888382,31.34603728,32.33194067,32.99680195,33.39822694,33.58206254,33.55256469,33.27329961,32.67086707,31.66362823,30.2009933,28.302937,26.04639002,23.53434079,20.8368894,17.94910068,14.77899342,11.20938856,7.179842973,2.769851018,-1.777166027,-6.097368143,-9.81900043,-12.67787304,-14.60218158,-15.723201,-16.31769297,-16.70146248,-17.13220889,-17.74719617,-18.54609942,-19.41555732,-20.18869026,-20.70451887,-20.84906247,-20.58439446,-19.95148765,-19.04108151,-17.95843273,-16.80591518,-15.66826445,-14.61792605,-13.72844078,-13.06876636,-12.66178299,-12.45190188,-12.28633568,-11.94071453,-11.1948293,1
2.288849527,3.220717556,3.825528503,4.005582902,3.801199047,3.354377661,2.821682625,2.290684856,1.761326363,1.160871627,0.40176986,-0.540084103,-1.589615069,-2.590077255,-3.345997647,-3.689495915,-3.546543017,-2.959481429,-2.083070872,-1.147356451,-0.391571072,0.006286394,-0.032023835,-0.466004779,-1.159951562,-1.938998263,-2.652833321,-3.206811304,-3.571378677,-3.760631548,-3.795213766,-3.670230764,-3.354412618,-2.811399072,-2.030011466,-1.05019074,0.03147953,1.079031094,1.960233712,2.586583439,2.939742002,3.07135895,3.082466665,3.075924308,3.111756661,3.179878382,3.193770517,3.008619353,2.469861463,1.471564437,0.001785101,-1.826309937,-3.775941439,-5.538235911,-6.816530011,-7.409806685,-7.27662863,-6.549198941,-5.488914146,-4.399055662,-3.548220563,-3.130672508,-3.284540011,-4.105770176,-5.631943611,-7.722919475,-9.855560815,-10.91975544,-9.228739557,-2.85401864,9.674930699,28.47080504,51.55182696,74.70634598,92.21169828,98.31426891,89.05605372,63.77557683,25.67629964,-18.84834745,-61.89997445,-96.1908268,-116.8524574,-122.3851607,-114.5160007,-97.19166008,-75.1835002,-52.81220961,-33.12440806,-17.64439109,-6.593958306,0.648092402,5.060238484,7.607002643,9.035635681,9.828281452,10.24070091,10.38795759,10.32375036,10.10382236,9.8042319,9.524367678,9.35456405,9.345150008,9.469597183,9.627937683,9.671936126,9.471068813,8.969100244,8.225044965,7.400659208,6.703649589,6.296251353,6.232664633,6.447977894,6.802493191,7.163959174,7.492265749,7.866264378,8.434870767,9.326302873,10.55568971,11.97753872,13.31746946,14.27529681,14.6462234,14.40090417,13.68620373,12.75666623,11.86954154,11.18568871,10.72949629,10.41902098,10.1247419,9.726060337,9.154791672,8.400791519,7.482331863,6.425409725,5.255794682,3.99229499,2.643547175,1.220827422,-0.272825286,-1.852239071,-3.54901944,-5.395150088,-7.413530692,-9.584798222,-11.83277055,-14.02589425,-16.00383356,-17.61603248,-18.77687539,-19.48778116,-19.83434198,-19.9489703,-19.94405288,-19.8496954,-19.60514946,-19.08781503,-18.17315092,-16.82129207,-15.11995801,-13.25074352,-11.42349783,-9.806638184,-8.460596356,-7.342568888,-6.374676943,-5.50420813,-4.731411133,-4.106335889,-3.670099841,-3.394440697,1
2.998756152,1.992855335,0.816118528,-0.352697713,-1.321186913,-1.941226058,-2.144540598,-1.952570604,-1.459597093,-0.792509297,-0.074879709,0.589613674,1.125120579,1.48086898,1.620756747,1.523066653,1.193054404,0.667365891,0.015108483,-0.670836783,-1.291969305,-1.769472642,-2.054808993,-2.138123088,-2.033041133,-1.770120244,-1.396005753,-0.992016248,-0.675015455,-0.594869702,-0.877960513,-1.554351572,-2.483598789,-3.350755594,-3.737001252,-3.276829686,-1.812979337,0.508459599,3.266478114,5.905523525,7.932091876,9.069950103,9.308720957,8.844241641,7.946746467,6.837065574,5.618282156,4.298790833,2.855581757,1.309692179,-0.246029817,-1.653402136,-2.752192482,-3.442472534,-3.730416021,-3.715193112,-3.561657978,-3.431954797,-3.417813466,-3.506142933,-3.617420746,-3.674209175,-3.700690488,-3.902020361,-4.629914465,-6.189921197,-8.529601947,-10.90783859,-11.72132168,-8.720855507,0.321437552,16.61437713,39.34216692,65.12493874,88.37272339,102.5823998,102.2443086,84.74079293,51.48619148,7.788330666,-38.54753865,-79.35500759,-108.2427552,-122.0190444,-120.999934,-108.2699629,-88.36402749,-65.89485463,-44.53710883,-26.56606098,-12.91357183,-3.48194064,2.45301087,5.883325809,7.806522998,9.072121625,10.25315263,11.58907116,13.0087105,14.23724497,14.94176429,14.90237406,14.12903107,12.86573295,11.48467429,10.34270026,9.652768325,9.408667986,9.419455334,9.4306163,9.249625047,8.828314496,8.292117603,7.878579628,7.81727786,8.224749439,9.052542987,10.09521437,11.07603539,11.76687765,12.08502857,12.12058803,12.0931814,12.24867106,12.7467629,13.57727714,14.55664911,15.39944736,15.83027354,15.68892377,14.99607259,13.94305328,12.80891336,11.84350225,11.17073006,10.7531097,10.42435571,9.976977891,9.2668968,8.271527771,7.071455425,5.786116875,4.498438758,3.203956841,1.81892596,0.24520701,-1.566289401,-3.583268556,-5.703673898,-7.793651455,-9.731473366,-11.42000994,-12.77538631,-13.71001374,-14.13879558,-14.01511918,-13.37135392,-12.33317738,-11.09326028,-9.849031379,-8.730121211,-7.767533824,-6.914616087,-6.091288056,-5.231518166,-4.301928623,-3.281368262,-2.129075296,-0.787571859,0.787607217,2.581880469,4.49168621,6.344979583,7.970040237,9.277199936,1
13.49840304,12.50748196,11.40713486,10.1196034,8.60958051,6.896847555,5.038816069,3.10444092,1.148809,-0.794437456,-2.708175539,-4.567083893,-6.324023728,-7.907821465,-9.23553396,-10.23091605,-10.852981,-11.10751912,-11.04291118,-10.74189153,-10.29866715,-9.792848541,-9.269325833,-8.731921055,-8.144271229,-7.454960177,-6.617624624,-5.611733892,-4.444558124,-3.135249951,-1.690240436,-0.096417896,1.67646109,3.648000629,5.792014027,8.027935565,10.23752578,12.3001825,14.14273459,15.76792186,17.23142114,18.60758479,19.93849218,21.19802221,22.29297791,23.11664557,23.58841703,23.70403659,23.53884529,23.22019128,22.86644026,22.55066652,22.26555036,21.94738686,21.51261232,20.89831641,20.08104076,19.0810523,17.92008765,16.58044704,14.97501316,12.93082421,10.19454193,6.491651923,1.640100041,-4.283143359,-10.74278007,-16.59315261,-20.1040458,-19.2892356,-12.53912133,0.579662229,18.63694799,38.12187328,53.97778159,60.86061956,54.75528175,34.41759591,2.073143837,-36.97711139,-75.75239538,-107.461512,-127.2260674,-133.1128131,-126.1933151,-109.7553056,-88.10688472,-65.41220432,-44.87520564,-28.425785,-16.8199727,-9.938890971,-7.127169247,-7.465733269,-9.940119829,-13.53517087,-17.3204723,-20.52844436,-22.62948959,-23.37035099,-22.77737021,-21.10637601,-18.75032125,-16.13319043,-13.63539475,-11.53626337,-9.984672116,-9.00629315,-8.527703395,-8.395795299,-8.415151127,-8.387272395,-8.153836421,-7.622980183,-6.784023157,-5.693108485,-4.449209711,-3.14453406,-1.839355107,-0.554868817,0.714427545,1.985037522,3.250122476,4.472645877,5.590940044,6.538888891,7.261836357,7.743682784,8.010660593,8.128021962,8.172762229,8.209916439,8.261720754,8.295644455,8.227117804,7.953153174,7.381547365,6.462714586,5.204163477,3.660090309,1.901070895,-0.005728003,-2.020956354,-4.141151289,-6.379482967,-8.747519161,-11.23925867,-13.80893694,-16.36302614,-18.77776432,-20.91094835,-22.62872683,-23.8371446,-24.50169738,-24.64487433,-24.33543071,-23.66427958,-22.71495596,-21.54768661,-20.20032115,-18.70328359,-17.08920338,-15.40483273,-13.70300746,-12.02382113,-10.37267072,-8.719486565,-7.007058296,-5.181953524,-3.228418304,-1.188924013,0.83974316,2.734967933,4.388535744,5.743653526,1
12.80444332,13.19524804,13.48295013,13.60467991,13.52254142,13.24965981,12.86074949,12.46954605,12.17245257,12.02592984,12.01014542,12.02972016,11.94107744,11.62614976,11.02440844,10.16909924,9.176863322,8.213774246,7.414294011,6.847429059,6.49386682,6.267106723,6.051779793,5.768547906,5.387921257,4.935647125,4.466049426,4.035475276,3.677485314,3.420667761,3.295899424,3.355240061,3.676794145,4.342473717,5.384878759,6.757606391,8.31880067,9.838378169,11.05393798,11.75405458,11.83584162,11.33350855,10.41177149,9.30228768,8.219331788,7.299687217,6.571680107,5.964544433,5.359475911,4.653250565,3.798716604,2.820848986,1.801073666,0.845500529,0.040242798,-0.567705242,-0.970521134,-1.188088995,-1.254734235,-1.199495026,-1.056952598,-0.887919301,-0.789260336,-0.894241239,-1.333605623,-2.123906896,-3.023417753,-3.413582721,-2.255692112,1.745453924,9.718139716,22.03405323,37.75002259,54.30287485,67.76230431,73.70040314,68.46705748,50.45470661,20.91813332,-16.07238324,-54.55799573,-88.18883067,-111.783822,-122.4717646,-120.0598817,-106.6499389,-85.76185151,-61.31724759,-36.79195598,-14.72245199,3.428398829,17.15686834,26.66621068,32.58714436,35.73256607,36.92442376,36.8767807,36.14142877,35.09647606,33.96650155,32.8435995,31.71999197,30.52818335,29.18068646,27.61438426,25.83373327,23.92169959,22.01959295,20.29006384,18.85894662,17.76832982,16.97756977,16.38390799,15.86139002,15.31013682,14.68747985,13.99659625,13.27020606,12.54514433,11.84295159,11.16438611,10.50445061,9.868459693,9.284285358,8.795080287,8.446651449,8.267894115,8.255588432,8.369305064,8.551398304,8.744175283,8.911311867,9.045201524,9.156047401,9.245178329,9.285405713,9.205867292,8.89780378,8.250602059,7.183708246,5.675276388,3.771492907,1.574269408,-0.801916932,-3.254113041,-5.717556429,-8.168057793,-10.60994916,-13.0455298,-15.46477537,-17.83492151,-20.10402478,-22.2101802,-24.0939588,-25.69732537,-26.9579882,-27.80680998,-28.17052813,-27.98382347,-27.21124152,-25.87433356,-24.06597891,-21.94538542,-19.71788592,-17.60090548,-15.78470565,-14.39712671,-13.4871007,-13.02136148,-12.89869731,-12.96705325,-13.05814464,-13.02091502,-12.75566538,-12.23339984,1
4.542871605,5.458369063,6.522675229,7.664269032,8.787106293,9.817162134,10.72704803,11.53933603,12.30929954,13.10331793,13.96202081,14.88976339,15.85371688,16.79252516,17.6402663,18.35547208,18.92047281,19.33918314,19.62787018,19.80054401,19.85625956,19.79433223,19.62748801,19.39144163,19.14503988,18.96388714,18.91122392,19.01277408,19.25092269,19.57595087,19.92388504,20.24869725,20.54687322,20.85209575,21.20636563,21.63344891,22.10944053,22.55189983,22.83931112,22.8537184,22.51581978,21.8103853,20.78234863,19.51823011,18.11239198,16.63318451,15.10385722,13.51028077,11.80283201,9.91891467,7.813645785,5.487830503,2.996072577,0.46178445,-1.948439204,-4.058264687,-5.729382454,-6.894830208,-7.587771604,-7.927728351,-8.108537485,-8.369428735,-8.963522237,-10.118632,-11.99095337,-14.56799009,-17.56091479,-20.32170425,-21.84759158,-20.94928719,-16.63687682,-8.614477392,2.256999485,13.75616159,22.55761627,24.99925281,18.13394946,0.774329849,-25.87697653,-58.30161909,-91.45705931,-119.9893731,-139.5150549,-147.5525049,-143.8442751,-130.0790033,-109.2298184,-84.74030099,-59.80704156,-36.91973616,-17.66440726,-2.731901108,7.919495934,14.82655314,18.78892934,20.65632897,21.1647601,20.86050974,20.09107397,19.03839442,17.78192937,16.37182357,14.86351883,13.33685334,11.89001704,10.62783311,9.630825645,8.947895338,8.589635665,8.537008648,8.743988948,9.15924014,9.733546793,10.42677923,11.2122842,12.08066838,13.03045311,14.06001872,15.16163084,16.30828787,17.46001792,18.57145318,19.60637559,20.5432071,21.38457951,22.13677997,22.8033155,23.37138916,23.81325011,24.09048616,24.17529568,24.04794942,23.70253307,23.14013071,22.35976176,21.34896506,20.09436421,18.58277136,16.81294048,14.80408422,12.60158453,10.27130101,7.891639639,5.532051146,3.231471555,0.986090204,-1.251785262,-3.554297205,-5.987826057,-8.572815663,-11.26796377,-13.96957345,-16.53605185,-18.81715417,-20.69494719,-22.09876793,-23.00904372,-23.44497745,-23.44912377,-23.06626668,-22.33465147,-21.28126396,-19.92732688,-18.29897478,-16.43645886,-14.40215728,-12.2833489,-10.18327737,-8.198555085,-6.407585449,-4.853982845,-3.536210207,-2.413142825,-1.430235435,-0.527684366,1
