-0.3,-0.295977011,-0.291954023,-0.287931034,-0.283908046,-0.279885057,-0.275862069,-0.27183908,-0.267816092,-0.263793103,-0.259770115,-0.255747126,-0.251724138,-0.247701149,-0.243678161,-0.239655172,-0.235632184,-0.231609195,-0.227586207,-0.223563218,-0.21954023,-0.215517241,-0.211494253,-0.207471264,-0.203448276,-0.199425287,-0.195402299,-0.19137931,-0.187356322,-0.183333333,-0.179310345,-0.175287356,-0.171264368,-0.167241379,-0.163218391,-0.159195402,-0.155172414,-0.151149425,-0.147126437,-0.143103448,-0.13908046,-0.135057471,-0.131034483,-0.127011494,-0.122988506,-0.118965517,-0.114942529,-0.11091954,-0.106896552,-0.102873563,-0.098850575,-0.094827586,-0.090804598,-0.086781609,-0.082758621,-0.078735632,-0.074712644,-0.070689655,-0.066666667,-0.062643678,-0.05862069,-0.054597701,-0.050574713,-0.046551724,-0.042528736,-0.038505747,-0.034482759,-0.03045977,-0.026436782,-0.022413793,-0.018390805,-0.014367816,-0.010344828,-0.006321839,-0.002298851,0.001724138,0.005747126,0.009770115,0.013793103,0.017816092,0.02183908,0.025862069,0.029885057,0.033908046,0.037931034,0.041954023,0.045977011,0.05,0.054022989,0.058045977,0.062068966,0.066091954,0.070114943,0.074137931,0.07816092,0.082183908,0.086206897,0.090229885,0.094252874,0.098275862,0.102298851,0.106321839,0.110344828,0.114367816,0.118390805,0.122413793,0.126436782,0.13045977,0.134482759,0.138505747,0.142528736,0.146551724,0.150574713,0.154597701,0.15862069,0.162643678,0.166666667,0.170689655,0.174712644,0.178735632,0.182758621,0.186781609,0.190804598,0.194827586,0.198850575,0.202873563,0.206896552,0.21091954,0.214942529,0.218965517,0.222988506,0.227011494,0.231034483,0.235057471,0.23908046,0.243103448,0.247126437,0.251149425,0.255172414,0.259195402,0.263218391,0.267241379,0.271264368,0.275287356,0.279310345,0.283333333,0.287356322,0.29137931,0.295402299,0.299425287,0.303448276,0.307471264,0.311494253,0.315517241,0.31954023,0.323563218,0.327586207,0.331609195,0.335632184,0.339655172,0.343678161,0.347701149,0.351724138,0.355747126,0.359770115,0.363793103,0.367816092,0.37183908,0.375862069,0.379885057,0.383908046,0.387931034,0.391954023,0.395977011,0.4,0.5
-2.47651444,-1.941749961,-1.493813947,-1.212064098,-1.140035205,-1.281641658,-1.585014256,-1.961325788,-2.297464545,-2.496006125,-2.505771402,-2.358988998,-2.155563477,-2.033591864,-2.115027774,-2.459722597,-3.029816184,-3.716430597,-4.375179926,-4.881049137,-5.165098752,-5.232546607,-5.133652209,-4.943964025,-4.726564199,-4.514709445,-4.301998661,-4.051562698,-3.697379554,-3.16802271,-2.401896251,-1.373085515,-0.118925971,1.244879929,2.541872273,3.562708085,4.116250509,4.092339749,3.498498346,2.455462419,1.167464592,-0.128763261,-1.231189799,-2.017799367,-2.459330244,-2.610592348,-2.595057137,-2.567408223,-2.67550857,-3.025211387,-3.649036305,-4.481291694,-5.373575693,-6.14179799,-6.633686175,-6.792285998,-6.680529305,-6.445819269,-6.244825761,-6.166330478,-6.191893976,-6.232255544,-6.212301035,-6.152653994,-6.167851173,-6.347793975,-6.536913221,-6.128576889,-4.009550868,1.186595121,10.52640557,24.06717613,40.28402252,55.94475323,66.68273814,68.1551959,57.44750058,34.23326222,1.219859172,-36.38935167,-72.20356615,-100.2746846,-116.5259404,-119.5405731,-110.5072139,-92.51396381,-69.52440975,-45.37854397,-23.08449506,-4.515991423,9.555979173,19.21946313,25.08497949,27.98533932,28.75056952,28.07835196,26.48567539,24.33928088,21.89236111,19.33220226,16.8133653,14.47485972,12.42712969,10.75417348,9.516528842,8.745828132,8.440259691,8.559074574,9.003433325,9.606191873,10.15390317,10.42615045,10.26107812,9.620026691,8.612841159,7.469294219,6.476540183,5.884857475,5.8301218,6.308076188,7.208801519,8.372959822,9.658767987,10.98227022,12.3213413,13.67599662,15.03196371,16.3385274,17.51066589,18.44515722,19.05626912,19.29759767,19.16216341,18.67281983,17.87503509,16.82285687,15.57347947,14.18455145,12.69956407,11.11875904,9.381168815,7.361997477,4.898859269,1.849361933,-1.834147836,-6.05918556,-10.59227389,-15.10272894,-19.24711372,-22.76192881,-25.51468662,-27.50473183,-28.83043786,-29.62147279,-29.97255975,-29.91783697,-29.44724209,-28.54009963,-27.21719227,-25.57996904,-23.805484,-22.09732433,-20.62266781,-19.44591535,-18.49926432,-17.60420441,-16.54610183,-15.15798516,-13.39660053,-11.356258,-9.235407086,-7.248355547,-5.544681686,-4.152157943,-2.993949283,0
1.571311628,0.478502507,-0.4638052,-1.083050435,-1.294104932,-1.122864759,-0.680794019,-0.122767702,0.409741288,0.840458483,1.168032406,1.448312775,1.753759992,2.119541832,2.506158929,2.81334593,2.911338149,2.697902593,2.159672811,1.394847117,0.578702189,-0.09001473,-0.460264083,-0.484131161,-0.224781763,0.184006511,0.591666905,0.895587955,1.078052848,1.20844314,1.412524729,1.830119994,2.55210325,3.580079328,4.810739979,6.055248352,7.08498834,7.711405205,7.847045524,7.534477322,6.926741156,6.233352289,5.634117815,5.219270407,4.971350823,4.788954081,4.534474738,4.098788931,3.436421233,2.570426665,1.578658864,0.564301624,-0.375385782,-1.162474245,-1.74856515,-2.118579989,-2.276129313,-2.240250027,-2.047551338,-1.746991143,-1.408498193,-1.149857939,-1.134716498,-1.551407488,-2.552822374,-4.124910389,-5.914870609,-7.10625135,-6.408446674,-2.275624733,6.59695691,20.60929823,38.65182003,57.82934783,73.78776103,81.68807163,77.58427234,59.75901144,29.54289805,-8.765398427,-48.89500844,-84.17600427,-109.1576215,-120.7881899,-118.8210962,-105.4329936,-84.3219904,-59.64919147,-35.12736,-13.45578788,3.859709642,16.39218841,24.50637113,29.01547652,30.87795734,30.97446796,29.98779065,28.38003826,26.43573789,24.32349298,22.16160481,20.05478768,18.09925972,16.37225194,14.92506477,13.77555328,12.91326587,12.30891247,11.91912484,11.69074786,11.56927075,11.50264893,11.45047237,11.39493587,11.34074628,11.30694888,11.32163345,11.41332466,11.60850235,11.93734521,12.43379194,13.12603084,14.02214264,15.0901278,16.24183771,17.34988953,18.28415012,18.95602543,19.34758247,19.52563534,19.60571287,19.69650599,19.84477139,20.02573098,20.14380177,20.06512955,19.6590028,18.82863629,17.49717754,15.61053021,13.15179347,10.14846666,6.685291241,2.915295408,-0.970867669,-4.807817635,-8.498406349,-12.03753215,-15.48492105,-18.90158551,-22.27759543,-25.49332599,-28.32636833,-30.52028404,-31.86421597,-32.25247398,-31.71004995,-30.376956,-28.45765212,-26.1764952,-23.7461584,-21.35327715,-19.14577078,-17.2181904,-15.59590074,-14.23621806,-13.0342979,-11.85976679,-10.6106308,-9.248084817,-7.800173295,-6.348643127,-4.989712788,-3.786113056,-2.750620192,0
1.154572212,0.85293478,0.698075773,0.698290778,0.841832571,1.089965654,1.374336772,1.626471831,1.779965477,1.784820941,1.626108763,1.334886447,0.962206425,0.575013537,0.237592891,-0.005770902,-0.14222516,-0.176092386,-0.123310867,-0.00136018,0.177644121,0.404658372,0.662384211,0.914045927,1.104098841,1.168598667,1.063527731,0.794596343,0.439233667,0.139348131,0.069132024,0.376841935,1.123283277,2.244380578,3.557644927,4.811631667,5.765268831,6.275054129,6.346030775,6.127534144,5.849412221,5.727437309,5.862085698,6.188734632,6.487608884,6.468451689,5.885870156,4.647015432,2.853920715,0.787536786,-1.188384964,-2.747397031,-3.696698197,-4.016494638,-3.842542897,-3.38172262,-2.821198295,-2.266167712,-1.717963743,-1.112619237,-0.408708915,0.334958402,0.918356032,1.020695944,0.328236979,-1.252744872,-3.371958801,-5.076475215,-4.837163252,-0.879409079,8.202947525,22.70856071,41.19748593,60.31458231,75.30379433,81.17372904,74.19152547,53.24024719,20.47619236,-19.01262003,-58.46537667,-91.19413771,-112.2365261,-119.3838539,-113.3355486,-97.05654107,-74.68090125,-50.39293205,-27.58270635,-8.425397454,6.128183156,16.09825551,22.13088247,25.15589488,26.12125608,25.83352763,24.88799792,23.660371,22.34730818,21.03035233,19.73288839,18.45090427,17.17227805,15.88632812,14.57726177,13.22989151,11.85551319,10.50674038,9.273852987,8.279226219,7.645173317,7.449056682,7.696408955,8.322517158,9.207026193,10.21368431,11.23029941,12.19485887,13.0933502,13.94153059,14.75671582,15.53886202,16.25592286,16.85241083,17.27910605,17.51630896,17.58522287,17.5569114,17.53904446,17.63777632,17.92760441,18.42172662,19.05606128,19.69352831,20.14799681,20.21831982,19.74006854,18.61255016,16.81778117,14.42621973,11.56546094,8.37214309,4.962639948,1.410378056,-2.2634934,-6.047658076,-9.904821509,-13.74253531,-17.41516394,-20.74345048,-23.57475933,-25.81812967,-27.47253683,-28.6054071,-29.31561803,-29.67889709,-29.72239119,-29.41556554,-28.70207553,-27.53783001,-25.934476,-23.97398503,-21.79646039,-19.56254193,-17.41200684,-15.42365817,-13.60039223,-11.89287884,-10.23738603,-8.601331881,-7.007307032,-5.538971546,-4.300476291,-3.375565388,-2.785546121,0
-0.946921442,-0.179719903,0.393176439,0.717304252,0.820360939,0.780444167,0.67644223,0.546033326,0.372796499,0.119269239,-0.228869218,-0.639939827,-1.034174803,-1.320835769,-1.447903621,-1.43440803,-1.358960928,-1.318230516,-1.369086745,-1.493010098,-1.606479081,-1.600506641,-1.399354613,-1.002158695,-0.484804706,0.042228314,0.480880546,0.792741708,1.011502235,1.215767949,1.486617221,1.866840259,2.336011233,2.815305017,3.205485285,3.414186535,3.396752843,3.171413425,2.823998665,2.4783655,2.276257745,2.323126936,2.66014804,3.232533594,3.904774598,4.488028065,4.798790711,4.700869699,4.153710906,3.212272504,2.002733654,0.68746415,-0.5726163,-1.657870855,-2.500253762,-3.077515853,-3.405119026,-3.515314262,-3.452384171,-3.288104983,-3.142979132,-3.207595175,-3.744936035,-5.01632277,-7.127676489,-9.830746063,-12.32929499,-13.2118279,-10.650185,-2.916294689,10.87955389,30.03806498,51.84592842,71.78195094,84.46932314,85.14597685,71.2098306,43.27075801,5.281473973,-36.38107923,-74.5518838,-103.0873169,-118.2544918,-119.3287834,-108.2889102,-88.8758724,-65.42018795,-41.82330366,-20.89822769,-4.173455603,7.94334956,15.83343289,20.30684902,22.28902514,22.63076293,22.02814476,20.98457458,19.81754258,18.6868777,17.62859536,16.59229249,15.5053765,14.31385009,13.02132491,11.69463973,10.4523686,9.42126379,8.708965998,8.36346287,8.366830894,8.636476725,9.053469816,9.490229497,9.853000454,10.10452873,10.2798309,10.47220767,10.80385358,11.38524956,12.26916194,13.41223122,14.67479809,15.85483054,16.74322936,17.19722783,17.20165379,16.88659056,16.48123245,16.23272632,16.31523193,16.76365221,17.44544798,18.11117808,18.47913299,18.32840712,17.55887553,16.2158668,14.44957501,12.45298813,10.38122003,8.303329346,6.193414433,3.959990868,1.478202379,-1.355009553,-4.581317158,-8.169592394,-12.01311298,-15.9220318,-19.64863248,-22.9345513,-25.55513366,-27.36959889,-28.36201358,-28.63338101,-28.35178529,-27.69174707,-26.77870624,-25.65643217,-24.3046462,-22.68201369,-20.78317076,-18.6749583,-16.50312049,-14.4501472,-12.67698381,-11.25102188,-10.11230541,-9.093163897,-7.999747663,-6.708720375,-5.244217934,-3.785652965,-2.590319431,-1.85820837,0
1.839312308,0.852592582,-0.20132095,-1.092562054,-1.609187691,-1.641305567,-1.214975803,-0.474076099,0.370429104,1.117300088,1.633461275,1.868263855,1.844583705,1.632958017,1.321613657,0.995987744,0.732854392,0.584057033,0.565338304,0.646914648,0.755192695,0.787712897,0.6467478,0.278504552,-0.305035934,-1.023787023,-1.753502413,-2.35406608,-2.708560746,-2.735333777,-2.395011725,-1.682224834,-0.63314128,0.674801796,2.107058161,3.487713978,4.625468769,5.359768222,5.605699494,5.391833814,4.838887774,4.116511678,3.392312871,2.775297932,2.282667052,1.860150758,1.416928445,0.856688361,0.120583892,-0.791010226,-1.827479183,-2.905440119,-3.917022298,-4.755654448,-5.336217918,-5.600830019,-5.518771632,-5.099343406,-4.390071682,-3.475217822,-2.489025159,-1.62858848,-1.14067721,-1.284402919,-2.229922842,-3.886813925,-5.716530867,-6.619261951,-5.001724456,0.850533671,12.1260246,28.74397461,48.79012157,68.46244566,82.75028563,86.73340263,77.11290854,53.46446546,18.69628654,-21.54426496,-60.3127762,-91.15464006,-109.6613721,-114.3184019,-106.437307,-89.36463187,-67.3426235,-44.41911756,-23.6808296,-6.945213144,5.176166909,12.9748461,17.27290522,19.07011185,19.29395296,18.65404841,17.61208938,16.40612062,15.12921632,13.81854099,12.52313697,11.31986761,10.31397533,9.608888354,9.25831527,9.232448582,9.419516272,9.649503381,9.73742087,9.542072976,9.015377025,8.221198251,7.307976852,6.462096492,5.851121615,5.577711678,5.652898739,6.018378972,6.578543447,7.235382825,7.91459359,8.587387995,9.264817206,9.989921421,10.82790636,11.84051817,13.06035933,14.46797158,15.98259498,17.46243851,18.74763146,19.69434285,20.21116574,20.2666897,19.88311843,19.09919963,17.95566648,16.49071188,14.7527462,12.80957555,10.74532573,8.631626217,6.489641709,4.269372405,1.863464379,-0.840795282,-3.901497874,-7.27352826,-10.80107299,-14.25310675,-17.39171148,-20.02750374,-22.05194416,-23.43691517,-24.2160773,-24.45258823,-24.22207315,-23.60950851,-22.71055616,-21.62306742,-20.43167676,-19.19072063,-17.91297793,-16.57636316,-15.1486352,-13.62745414,-12.06232021,-10.55067614,-9.212035544,-8.145233994,-7.381038974,-6.868515578,-6.495589274,-6.121703254,-5.626387937,0
0.128905341,0.407476488,0.68637444,0.953904265,1.185658065,1.345418549,1.391587437,1.292353962,1.043805015,0.675536377,0.252170128,-0.132484453,-0.373344556,-0.379295145,-0.097816072,0.459287024,1.204476037,1.979416605,2.589839892,2.859386532,2.684934309,2.075329616,1.163120462,0.165497164,-0.687693097,-1.219772161,-1.354373807,-1.122963729,-0.623133031,0.050751247,0.856520141,1.818259341,2.992841051,4.404198689,5.974804701,7.503444611,8.706985102,9.307524118,9.138647104,8.222237899,6.771747938,5.117380235,3.604017516,2.478497207,1.825117935,1.571057545,1.552191869,1.578420875,1.500777367,1.242246134,0.791473333,0.167419685,-0.594358985,-1.452121804,-2.356977767,-3.239096943,-3.989206228,-4.475277845,-4.568121005,-4.179333825,-3.311309079,-2.105921181,-0.843764071,0.09490958,0.342944242,-0.275032786,-1.525268265,-2.611344129,-2.174480573,1.433775576,9.609798828,22.79149366,39.83303755,57.77945074,72.27600508,78.59813172,73.04233969,54.23317058,23.8256772,-13.70027707,-52.10888796,-84.98432575,-107.2965522,-116.4616441,-112.6255259,-98.20571491,-76.96048384,-52.94265853,-29.64123423,-9.483600687,6.284127956,17.43569759,24.45324409,28.18813218,29.5758303,29.44193398,28.40893898,26.88266994,25.09427831,23.16771576,21.1912988,19.25131408,17.43626015,15.8229413,14.44692047,13.28238137,12.26107147,11.31408426,10.39714972,9.518391293,8.729479639,8.092490933,7.642259202,7.386551095,7.306198305,7.385806479,7.63873864,8.107320335,8.828858198,9.808709195,10.99121884,12.25217687,13.43569624,14.40565148,15.09035156,15.50877558,15.76783394,16.00586419,16.34159036,16.82197032,17.39458012,17.92172009,18.24301628,18.22002285,17.78444003,16.96709037,15.87568839,14.64150309,13.3704958,12.09631868,10.74747961,9.169376382,7.166066038,4.572449269,1.319080432,-2.52614074,-6.772292167,-11.13892156,-15.33477877,-19.13265588,-22.41167758,-25.1524779,-27.41295071,-29.2758003,-30.79538118,-31.96866952,-32.73981688,-33.02301254,-32.73754273,-31.84394914,-30.37342976,-28.42977153,-26.1735647,-23.79073156,-21.4543209,-19.2837549,-17.32769667,-15.56543843,-13.93475826,-12.37179746,-10.85147151,-9.406768826,-8.122451262,-7.093446655,-6.37486698,0
-0.539020396,0.201877996,0.893055373,1.365525874,1.512846122,1.322794447,0.876547082,0.331673645,-0.117237923,-0.286700466,-0.062975385,0.570976771,1.527299053,2.640787941,3.710251881,4.558111683,5.071186596,5.232018043,5.110446274,4.836870689,4.551585197,4.353664639,4.259272996,4.201204815,4.059441988,3.71360245,3.103711864,2.267070351,1.341594989,0.531198058,0.055538727,0.08946149,0.723032075,1.927701597,3.55701464,5.36751539,7.065864918,8.371547854,9.096292983,9.188434099,8.746662383,7.984437085,7.151104934,6.441192153,5.938855994,5.594247343,5.257064365,4.743879927,3.913635907,2.720087884,1.238039932,-0.361356392,-1.852512961,-3.025913698,-3.746139767,-3.985560677,-3.812476986,-3.361713886,-2.768649393,-2.129545186,-1.495704972,-0.912260483,-0.472188213,-0.35563788,-0.773857064,-1.815456048,-3.224406205,-4.197953436,-3.356022243,0.976964407,10.17771832,24.56576584,42.74492826,61.40113754,75.81603311,81.04833054,73.44197882,51.96606917,18.86266685,-20.73411641,-60.08243892,-92.56344629,-113.2959063,-120.1474938,-113.8515787,-97.3529676,-74.74901453,-50.19710305,-27.08220761,-7.61730184,7.165596839,17.19861576,23.0536408,25.62248428,25.87551789,24.70813115,22.84608195,20.80871245,18.9181983,17.32475299,16.04651337,15.01859587,14.14436436,13.33083195,12.52161535,11.71291967,10.94913266,10.29643113,9.810923685,9.506919576,9.341086015,9.229743215,9.089240657,8.879940362,8.633632649,8.451285164,8.452846602,8.71887151,9.245120994,9.936471591,10.64066178,11.22011229,11.61234002,11.86291807,12.10343891,12.49931161,13.18502205,14.21302178,15.53221455,17.01485743,18.49260354,19.79011308,20.7580235,21.28757866,21.30194012,20.75623567,19.64988565,18.02717254,15.97765899,13.63189011,11.13326994,8.592681758,6.053919715,3.480331445,0.76716234,-2.21224773,-5.548903268,-9.237305061,-13.15370371,-17.06887528,-20.69737049,-23.75919613,-26.05372953,-27.49817493,-28.13524246,-28.10639938,-27.60758759,-26.83949662,-25.96523404,-25.08539848,-24.23722085,-23.39976845,-22.50136352,-21.44390368,-20.13013038,-18.48426341,-16.48433272,-14.18485913,-11.71713006,-9.271472463,-7.066039622,-5.295739535,-4.080476644,-3.4345037,-3.25339143,0
-0.334496917,-0.107615371,0.364996932,1.001395102,1.670511478,2.20579153,2.450810994,2.297561415,1.73671699,0.87682946,-0.073498337,-0.869372324,-1.298604276,-1.256370747,-0.775595933,-0.012120384,0.806801376,1.458746439,1.800433719,1.79934804,1.528068875,1.136736627,0.788109785,0.592842361,0.58177172,0.701924857,0.834234182,0.850630569,0.683459885,0.358053444,0.007308539,-0.159753833,0.068606468,0.809046335,2.026511942,3.513947266,4.949706628,5.99985255,6.43872537,6.225182842,5.510304338,4.564482233,3.667781222,3.009161685,2.625515071,2.413266269,2.19162782,1.787498399,1.094240137,0.103166213,-1.105392376,-2.395478657,-3.62097804,-4.659168281,-5.428351327,-5.893087647,-6.055748914,-5.949044824,-5.620038598,-5.130869838,-4.570735254,-4.075796037,-3.826036763,-4.03290983,-4.869876487,-6.341598597,-8.121109806,-9.426422883,-9.010214635,-5.376877521,2.743578693,15.76218755,32.64282088,50.63475051,65.58253771,72.85536998,68.66985602,51.38819984,22.316759,-14.36685104,-52.57684485,-85.85663119,-108.9714953,-119.0669425,-116.0532637,-102.2122419,-81.27602591,-57.35708928,-34.03483818,-13.81371322,2.017501097,13.22560639,20.3202107,24.18519187,25.77041353,25.89735688,25.16735246,23.95028858,22.4490155,20.78417326,19.05103645,17.35027264,15.78909658,14.46407873,13.43050914,12.69774756,12.23029961,11.96622502,11.82622398,11.74006582,11.6525985,11.53201861,11.369992,11.18661344,11.01349288,10.88118121,10.8165732,10.83491444,10.93946377,11.12957514,11.41551225,11.80683849,12.3138812,12.93297857,13.64652647,14.41660947,15.20211067,15.96366218,16.6822112,17.34996559,17.96286071,18.50468079,18.94036965,19.20719426,19.22902221,18.93450083,18.27219534,17.22023086,15.7926617,14.02977895,11.9789951,9.683579646,7.173518962,4.454821981,1.519158473,-1.63550418,-4.990699277,-8.497014077,-12.05888878,-15.54713332,-18.82019409,-21.74340875,-24.20584118,-26.14086971,-27.52393337,-28.36141272,-28.68477155,-28.54022186,-27.97698803,-27.04467198,-25.80383111,-24.32212957,-22.67359545,-20.93630091,-19.18757777,-17.48707707,-15.87186436,-14.35912071,-12.94673337,-11.62130643,-10.36811375,-9.181249452,-8.05989904,-7.013311844,-6.051910562,0
2.918304035,2.886330898,3.019823861,3.388889507,4.003087949,4.791944135,5.619302821,6.321411607,6.75911066,6.853829119,6.609474567,6.103342378,5.45574737,4.784930717,4.186762739,3.721663395,3.416539416,3.276145871,3.298061118,3.46272055,3.727169467,4.023011774,4.262738682,4.354857724,4.234412232,3.887215606,3.360610249,2.759633543,2.222146267,1.889765254,1.874925348,2.236324611,2.958238631,3.955791893,5.082684348,6.159116417,7.006613538,7.491839528,7.554791355,7.226062424,6.610431815,5.852112606,5.087818479,4.406355176,3.824248359,3.293151714,2.728551818,2.048356897,1.204037178,0.200441702,-0.897673206,-1.98733196,-2.956793109,-3.713560591,-4.203200631,-4.430471485,-4.441935104,-4.306518027,-4.088128612,-3.840219029,-3.603183779,-3.440751863,-3.46117213,-3.814596757,-4.61813607,-5.816158731,-7.000396327,-7.289000259,-5.377682989,0.156391625,10.28828296,24.8934268,42.23757918,58.9400974,70.5549067,72.73401857,62.58990598,39.84164193,7.221182788,-30.04853027,-65.57007398,-93.40733499,-109.5421195,-112.6587739,-104.0830434,-87.03706178,-65.55970745,-43.46496154,-23.62257737,-7.684203109,3.830767621,11.23061469,15.28789824,16.91830578,16.966533,16.09468113,14.75595757,13.22396246,11.65209824,10.14013007,8.78245944,7.683178832,6.941175799,6.623249562,6.73323358,7.202925531,7.912031355,8.724530463,9.515907656,10.19615145,10.71159949,11.03668347,11.1668109,11.12997729,10.98685581,10.83530722,10.79649952,10.98398972,11.46392673,12.24569579,13.27245385,14.44053637,15.63352397,16.7502909,17.70457871,18.43679718,18.90467638,19.07527477,18.92453358,18.45427737,17.68911359,16.68018873,15.50347591,14.24759611,12.98792741,11.78003848,10.66048739,9.636650363,8.6972527,7.825931795,6.993568734,6.133110552,5.146624079,3.899114982,2.233516635,0.012537919,-2.81829731,-6.212240104,-10.01519708,-13.98834244,-17.85694809,-21.37266992,-24.33736207,-26.60670998,-28.09370492,-28.76069395,-28.6183689,-27.7364249,-26.25452918,-24.36319876,-22.2760581,-20.18216503,-18.21344074,-16.43251443,-14.8460453,-13.43321274,-12.17930907,-11.08494781,-10.14932854,-9.349705167,-8.620914621,-7.859129406,-6.952566177,-5.83288307,-4.513926704,0
1.985186429,1.77109991,1.678059635,1.66318949,1.670315729,1.647476359,1.564720906,1.417835516,1.223082028,1.007892033,0.798144166,0.607965391,0.439194374,0.290227071,0.158651333,0.048327267,-0.02187109,-0.021983601,0.070024433,0.260258907,0.532124952,0.833805799,1.090318952,1.229645917,1.204845995,1.004680565,0.664862196,0.25492116,-0.139206054,-0.438002594,-0.57313469,-0.494558418,-0.174920419,0.380643404,1.135937207,2.015237806,2.914992629,3.729898208,4.387649913,4.86215093,5.181422519,5.403232399,5.583172712,5.738968278,5.844552911,5.837981407,5.64912672,5.221453247,4.534168232,3.604754126,2.474986978,1.202512933,-0.141385392,-1.480815068,-2.739602864,-3.835261726,-4.68968504,-5.239832651,-5.440105132,-5.278974622,-4.802823171,-4.135440804,-3.496319668,-3.194353638,-3.546263673,-4.722628604,-6.548545528,-8.317359355,-8.738811728,-6.152150999,0.96426412,13.29005841,29.99423028,48.40479312,64.3029397,72.87728638,70.11232539,54.13979404,26.08542946,-9.995997282,-48.08677676,-81.76037462,-105.7628183,-117.1653927,-115.7306176,-103.5230851,-84.02657546,-61.13364042,-38.29285612,-18.00489809,-1.678468918,10.27013873,18.15748407,22.72885798,24.87373383,25.4121113,24.94574207,23.82462837,22.19998393,20.13050999,17.69507757,15.07199706,12.54411021,10.43071941,8.987642447,8.312999032,8.309847621,8.71170149,9.17573342,9.406950804,9.261415436,8.78340855,8.178358354,7.724363958,7.644020589,8.012448796,8.731461593,9.578935508,10.30231568,10.74113773,10.89956353,10.95011898,11.15453592,11.76183422,12.9048165,14.53893959,16.45190743,18.34588838,19.93066843,21.00337928,21.50559029,21.51273965,21.17228572,20.6371271,20.00677865,19.28928028,18.42148983,17.31939736,15.91867872,14.21008757,12.24215314,10.08517655,7.782256939,5.328011167,2.661763787,-0.29879844,-3.609851839,-7.248718765,-11.09514316,-14.93406061,-18.50474599,-21.5508487,-23.88143865,-25.40382444,-26.1374563,-26.18360437,-25.69837038,-24.84638284,-23.77060293,-22.57304018,-21.31875142,-20.0266738,-18.68082726,-17.24301388,-15.67010409,-13.92881959,-12.03334494,-10.05463916,-8.109927715,-6.326158108,-4.805730282,-3.572873981,-2.560583684,-1.628999806,-0.619993383,0
1.13340778,1.459089931,1.619430821,1.411687225,0.76169981,-0.256502988,-1.460772778,-2.631787979,-3.589111445,-4.242463733,-4.591524544,-4.693178563,-4.612858722,-4.386678535,-4.00761436,-3.454197934,-2.728937574,-1.902179607,-1.124945068,-0.606998876,-0.543265213,-1.040022731,-2.045840987,-3.343240154,-4.600925435,-5.487700805,-5.77933484,-5.441084804,-4.628026652,-3.607825804,-2.640125925,-1.870611987,-1.272045176,-0.667256493,0.166866798,1.383667888,2.9684329,4.7071745,6.23491172,7.172930375,7.259547444,6.46096371,4.993566065,3.260014314,1.694722737,0.620211557,0.130551317,0.083591029,0.177032008,0.091018474,-0.381488368,-1.24657965,-2.335299272,-3.385492538,-4.153222853,-4.503874947,-4.445007818,-4.071511522,-3.499732134,-2.814633831,-2.057506185,-1.277367686,-0.613619892,-0.325561627,-0.717034071,-1.95325808,-3.795346498,-5.382059413,-5.211771301,-1.467726381,7.34380465,21.58593211,39.82844573,58.66381638,73.26913473,78.6298552,71.08564167,49.67313527,16.75033909,-22.41841548,-60.99335972,-92.32840287,-111.617076,-116.9019616,-109.1812039,-91.69343626,-68.78652037,-44.73592914,-22.8551869,-5.077127052,7.987608121,16.72311543,22.04332751,24.96242008,26.31109347,26.6387259,26.23055454,25.2185041,23.70092675,21.81409369,19.73939846,17.67644362,15.78933964,14.17282777,12.85214177,11.81550598,11.04346791,10.52886986,10.27101395,10.25631397,10.42580926,10.67652531,10.8883188,10.9593759,10.83502926,10.52881624,10.10336547,9.631823411,9.178162537,8.797565586,8.547901976,8.506995065,8.780793216,9.476702822,10.65543943,12.28754411,14.24470891,16.32290416,18.29216727,19.96081466,21.22279547,22.06000751,22.51867261,22.6689292,22.54922213,22.13409088,21.34164498,20.05229648,18.14767085,15.56934373,12.34714966,8.59165583,4.477089511,0.200831001,-4.068016361,-8.209193249,-12.14965094,-15.8448024,-19.24398746,-22.2713944,-24.83848689,-26.86077059,-28.29887974,-29.19334359,-29.65793249,-29.83312664,-29.8420374,-29.72940571,-29.43861803,-28.83458093,-27.77084031,-26.15311399,-24.00125431,-21.45881605,-18.76532345,-16.1877019,-13.95042715,-12.17268663,-10.84038195,-9.81551769,-8.886278213,-7.835308663,-6.509219531,-4.877819559,-3.049744616,0
5.608182173,5.834170169,5.733938315,5.221042132,4.270154908,2.960904725,1.485817447,0.124972288,-0.837146132,-1.199884445,-0.920985727,-0.134337597,0.890292875,1.839828317,2.452517705,2.590285362,2.267565945,1.623980872,0.867091347,0.206037285,-0.200030001,-0.275881193,-0.038452449,0.41889593,0.959199297,1.435295543,1.726234892,1.781401106,1.635150575,1.396479348,1.22554759,1.287813336,1.68932051,2.441394683,3.459981483,4.584117706,5.628926906,6.448080397,6.967206461,7.181343066,7.13265671,6.867210811,6.401116758,5.724236029,4.829180173,3.749035921,2.579622925,1.4715686,0.57999004,0.004218651,-0.258331167,-0.314029925,-0.334372034,-0.482884584,-0.843634861,-1.381103609,-1.948235382,-2.338916208,-2.371184817,-1.97383986,-1.237720101,-0.428494914,0.062217758,-0.177102295,-1.410019808,-3.575406762,-6.113872277,-7.89209797,-7.30372556,-2.641443265,7.316779787,22.60948783,41.54720687,60.61516654,75.0464066,79.99172481,71.9868961,50.22780173,17.14258749,-22.02464976,-60.51737461,-91.79889813,-111.1640908,-116.7058393,-109.4096249,-92.44595385,-70.06023565,-46.42279817,-24.79564465,-7.136558906,5.85216993,14.42366234,19.37210339,21.67970185,22.26522528,21.86784571,21.02320151,20.0878365,19.25332914,18.5718221,17.9828803,17.34608782,16.50256787,15.3639979,13.95843697,12.43489212,11.02033243,9.939815816,9.321774356,9.166667074,9.362472537,9.74293752,10.15245138,10.502283,10.77442728,10.99846999,11.21914059,11.47770742,11.79638437,12.18136452,12.62908354,13.12672255,13.64437699,14.15228327,14.63675603,15.10905505,15.6017796,16.16225941,16.81532718,17.53855118,18.26201286,18.89498557,19.34725404,19.55959779,19.51029097,19.20356958,18.63949058,17.80684094,16.67408092,15.19902127,13.33365999,11.04058541,8.285836403,5.049932243,1.332333217,-2.824471118,-7.328525077,-12.02353491,-16.70238519,-21.12572075,-25.06807856,-28.34405775,-30.83070397,-32.47269022,-33.28111792,-33.30558937,-32.62219447,-31.33064865,-29.55209064,-27.41751387,-25.06942904,-22.6438288,-20.24081795,-17.90424787,-15.63324595,-13.39932333,-11.18986334,-9.053496404,-7.1208204,-5.57026726,-4.569211066,-4.198163506,-4.393704242,-4.940582429,-5.529864247,0
0.953064185,1.065234803,1.128706661,1.196470573,1.349240156,1.661779717,2.159580216,2.785457643,3.396096591,3.798008602,3.818429727,3.373089179,2.504103312,1.377274878,0.23930983,-0.668543203,-1.176035299,-1.221591789,-0.851735187,-0.204405685,0.545616896,1.223753211,1.690256689,1.858382717,1.714640338,1.313261155,0.771761581,0.249340998,-0.0793766,-0.057944172,0.418566078,1.372483109,2.730215628,4.32410536,5.91677867,7.255853603,8.134751377,8.440869838,8.18592996,7.495870635,6.564978965,5.599123525,4.764559711,4.147639389,3.751598731,3.511689416,3.322190006,3.072123405,2.680749049,2.1097432,1.36862665,0.510307513,-0.390421668,-1.260296684,-2.034431766,-2.65725144,-3.085765142,-3.292361684,-3.273979954,-3.077688661,-2.832104826,-2.758482608,-3.141483916,-4.250652947,-6.198766061,-8.748313543,-11.1398232,-12.03782791,-9.709002431,-2.482864634,10.54172665,28.77429205,49.67849369,68.93242329,81.30035388,82.06769601,68.57246552,41.31724551,4.140565334,-36.65682463,-73.94683507,-101.6023517,-115.940893,-116.3267843,-104.8455881,-85.33203255,-62.16097609,-39.19678336,-19.14969186,-3.420100916,7.720303445,14.77084104,18.61672714,20.21172732,20.39569756,19.80373646,18.84930399,17.76381876,16.65633322,15.56212885,14.49086668,13.45526389,12.47735595,11.58642077,10.81559456,10.18770244,9.709607002,9.369112883,9.138631712,8.979868638,8.854221416,8.733549683,8.610838341,8.499940277,8.427352423,8.426877395,8.523957629,8.727290281,9.0266997,9.408923564,9.85968273,10.37945028,10.98707514,11.72110358,12.6169744,13.69599844,14.94181323,16.28405893,17.59221324,18.69907334,19.43606263,19.67837383,19.38715559,18.62663777,17.53892746,16.29144982,15.01194978,13.73752714,12.39948645,10.85769972,8.94961556,6.560044842,3.66510301,0.33668351,-3.284951716,-7.018485623,-10.69215041,-14.17624151,-17.38085172,-20.24919427,-22.75049605,-24.85616911,-26.52475861,-27.70872077,-28.36203842,-28.45482767,-27.99838379,-27.05861394,-25.75758723,-24.25568779,-22.71882925,-21.27887783,-20.00461854,-18.88538215,-17.84424765,-16.77331442,-15.57023775,-14.17259605,-12.57723179,-10.83744184,-9.03474939,-7.253797929,-5.557765027,-3.9756684,-2.497993636,0
-3.997089181,-3.784319341,-3.564282819,-3.337012544,-3.110461774,-2.895489513,-2.704855357,-2.554620084,-2.452406461,-2.390698548,-2.356758185,-2.328080086,-2.272027954,-2.158463513,-1.968828161,-1.694698446,-1.347880409,-0.963374065,-0.588936442,-0.268148336,-0.030532583,0.120040106,0.204487855,0.256455384,0.305629473,0.364592813,0.422556167,0.464644158,0.496297489,0.552576967,0.707880272,1.061514485,1.688311217,2.592033476,3.693538704,4.827286666,5.783658395,6.382344746,6.531120987,6.247937565,5.656746345,4.933884815,4.243035839,3.691603691,3.3068626,3.042637356,2.818841717,2.551306224,2.172096516,1.651468669,1.003185287,0.271292022,-0.471444243,-1.131269052,-1.616060279,-1.856774832,-1.815933091,-1.500045731,-0.968521768,-0.329943083,0.263612643,0.619691998,0.520323353,-0.229976175,-1.71647602,-3.78227582,-5.883437664,-6.993971146,-5.675249627,-0.392514841,9.93487818,25.27417652,43.9444312,62.52466757,76.41401978,80.97067807,72.93304042,51.64514209,19.5824817,-18.09818267,-54.84462158,-84.40798162,-102.3779762,-107.0826798,-99.62349846,-83.16542827,-61.83072526,-39.61214545,-19.5788125,-3.520126369,8.000809898,15.34044036,19.37843279,21.14478534,21.55378401,21.27161014,20.68704623,19.9673369,19.15018788,18.2311215,17.21960318,16.16384761,15.13213751,14.17769466,13.30910442,12.48431186,11.62646209,10.66277856,9.570057791,8.400115446,7.269311803,6.324119468,5.694142865,5.441451282,5.537156985,5.886113311,6.362101972,6.848178676,7.27854753,7.660963616,8.047534865,8.514926526,9.136415618,9.950495862,10.93776847,12.0406391,13.17348556,14.2466431,15.19442823,15.99386462,16.65008945,17.17631527,17.56753239,17.7800851,17.73497674,17.34757587,16.56490108,15.39367374,13.90952705,12.23022044,10.47445765,8.724459408,6.999362273,5.247153814,3.367598998,1.245530672,-1.221466728,-4.087815499,-7.32879199,-10.83133269,-14.40557951,-17.80195679,-20.75501548,-23.04055258,-24.51448266,-25.13313407,-24.96469215,-24.17054624,-22.96479778,-21.57689926,-20.21154495,-19.00325957,-17.9970888,-17.14938806,-16.34915843,-15.45758303,-14.36557426,-13.02733535,-11.46962929,-9.777314074,-8.06065248,-6.416407284,-4.907405274,-3.575785576,-2.452437449,0
-1.961713659,-1.110631662,-0.200203488,0.610110393,1.228698809,1.639366635,1.878651242,2.008524606,2.091007568,2.168279774,2.24825169,2.311760976,2.326758995,2.260233092,2.089918171,1.822446058,1.486068305,1.126105664,0.796250886,0.549595392,0.417227846,0.406300514,0.487083596,0.589776078,0.619567706,0.487134864,0.142489353,-0.393131337,-1.008526065,-1.528667568,-1.764422066,-1.578810608,-0.931785367,0.091987703,1.306479224,2.48291076,3.420308182,3.992259332,4.175150398,4.034896529,3.682985938,3.226416603,2.735061699,2.224162495,1.673367837,1.052453659,0.352713098,-0.399407037,-1.137694469,-1.787658155,-2.289594065,-2.630952584,-2.85117087,-3.03749355,-3.287662035,-3.671847317,-4.187559886,-4.760134902,-5.261237749,-5.561579173,-5.60021227,-5.446502463,-5.296286941,-5.417632768,-6.018947023,-7.055102465,-8.038779168,-7.959523081,-5.393355667,1.1163313,12.44644528,28.23105973,46.4124496,63.29421127,74.25252595,74.97580525,62.85726425,38.06179408,3.812267699,-34.29299346,-69.69715906,-96.55512901,-111.1188943,-112.4261838,-102.1245337,-83.65325056,-61.13872953,-38.38730182,-18.1941014,-2.106300849,9.459834258,16.88977756,21.00226623,22.71112723,22.81674128,21.92043486,20.43225467,18.61953634,16.67286689,14.74880339,12.98404952,11.48015301,10.29059039,9.418476299,8.825999485,8.442215078,8.192185286,8.008615246,7.839873546,7.650256336,7.435867939,7.218657548,7.044650005,6.97072379,7.051903108,7.313636442,7.742933661,8.292117135,8.894203317,9.482240776,10.0139963,10.48148752,10.90934922,11.33993449,11.81601834,12.36609518,12.99687438,13.6854689,14.38557068,15.04213303,15.59612695,15.9932393,16.19432667,16.18140434,15.94523473,15.48712712,14.81094738,13.91642074,12.79166533,11.41801196,9.76926523,7.81890481,5.553807997,2.980694013,0.136167659,-2.912564184,-6.07321098,-9.250000432,-12.34822356,-15.29194078,-18.02411403,-20.50199529,-22.67917824,-24.50701398,-25.92816916,-26.88631705,-27.33763385,-27.27016251,-26.71201627,-25.72718537,-24.40653766,-22.8554324,-21.17039138,-19.41212873,-17.61145411,-15.77064366,-13.87093139,-11.8997694,-9.885930587,-7.895484311,-6.023443704,-4.378613504,-3.043245323,-2.037252202,-1.313695944,0
0.895541876,0.975786883,1.069787938,1.162537404,1.239320579,1.293519844,1.321880175,1.322533209,1.294944706,1.235012758,1.128654735,0.959334427,0.711832161,0.372196437,-0.059340257,-0.562609333,-1.103965204,-1.633632426,-2.088320585,-2.411250824,-2.56118012,-2.513574398,-2.277110571,-1.888200616,-1.399891803,-0.870585961,-0.352853248,0.132764121,0.600465974,1.10634423,1.736226182,2.577524762,3.680022608,5.027601484,6.51603763,7.9671465,9.179691488,9.989545584,10.32048812,10.21082165,9.79439304,9.242400851,8.697411435,8.227381653,7.807932883,7.347083962,6.728787309,5.865009264,4.726711421,3.358660153,1.863670048,0.382896031,-0.938041577,-1.975980295,-2.654540197,-2.953297834,-2.907527465,-2.595488414,-2.122894591,-1.609823854,-1.183360011,-0.990819311,-1.197441462,-1.958531678,-3.337257995,-5.170562009,-6.900349023,-7.494413602,-5.53678274,0.415521174,11.24305761,26.5952761,44.4420658,61.11134085,71.99279857,72.76792142,60.80444191,36.223048,2.19070388,-35.75580827,-71.10914963,-98.04111387,-112.7873307,-114.3326745,-104.2474306,-85.8915075,-63.34979858,-40.4244685,-19.95492047,-3.564771734,8.245208691,15.81570363,19.96416512,21.66063325,21.79813239,21.07489106,19.95210508,18.6873839,17.39365851,16.11038176,14.84957826,13.63007878,12.48199894,11.44229301,10.53791644,9.784370615,9.178020422,8.702589864,8.341098847,8.085962354,7.934929726,7.897347624,7.989924346,8.221865096,8.592016083,9.090551822,9.695561066,10.37334022,11.09152748,11.81728855,12.52691135,13.20904229,13.86823654,14.51509902,15.17081715,15.84850485,16.54877279,17.25344204,17.93309172,18.53909829,19.01838785,19.31621298,19.38581955,19.18533554,18.69250028,17.90428487,16.83658232,15.51611181,13.97843954,12.24899959,10.33535106,8.22698159,5.898279661,3.315645494,0.459096854,-2.665939311,-6.017119018,-9.510139456,-13.02051449,-16.40202849,-19.50156781,-22.18399011,-24.34296115,-25.91657225,-26.88345467,-27.26151457,-27.09622187,-26.461546,-25.44187132,-24.1326484,-22.62673907,-21.00910371,-19.34584957,-17.69235679,-16.08402992,-14.54923475,-13.10891535,-11.77815433,-10.5578562,-9.438944294,-8.393884899,-7.385685829,-6.373915525,-5.331193161,-4.252346866,0
-0.189896169,-0.280350394,-0.342080644,-0.374372517,-0.378962016,-0.349774322,-0.280467907,-0.169199878,-0.025390214,0.131044475,0.262546826,0.332212334,0.312789532,0.195582961,-0.011750248,-0.278057294,-0.57022282,-0.858427105,-1.12269923,-1.351970944,-1.550013855,-1.719385611,-1.86890765,-2.013027894,-2.172906787,-2.368985726,-2.624410318,-2.93713017,-3.269081545,-3.537028978,-3.624185235,-3.399805896,-2.773086362,-1.7283314,-0.353085066,1.171563747,2.610036385,3.741018306,4.41587641,4.599959119,4.36617034,3.857069702,3.230097203,2.603637268,2.027597862,1.49263614,0.955797813,0.36545205,-0.306393167,-1.049690621,-1.822355793,-2.565028153,-3.205464649,-3.676540805,-3.936362356,-3.974004944,-3.803083172,-3.464412264,-3.01988188,-2.534322494,-2.07819857,-1.747751693,-1.670808291,-1.995854527,-2.843582929,-4.188383268,-5.691627249,-6.574592056,-5.607946715,-1.338201958,7.418996413,20.92703863,37.95270906,55.54683418,69.43958546,75.05733834,68.88779381,49.75802818,19.51672533,-17.20379807,-54.10400284,-84.83364733,-104.5861369,-111.1397438,-105.0730235,-89.20445093,-67.55673303,-44.23432969,-22.5564003,-4.612885295,8.753349457,17.67923122,22.88948817,25.32993883,25.8950131,25.30129233,24.05246393,22.47933871,20.79087373,19.13910643,17.63801438,16.37501318,15.39311379,14.69085865,14.2076435,13.84044179,13.4627098,12.96453494,12.2733549,11.377832,10.32824985,9.227136989,8.197195036,7.356008135,6.794754625,6.565574742,6.678995315,7.117844285,7.845957215,8.809121065,9.943502014,11.17319847,12.40661896,13.54481939,14.4965416,15.18462616,15.57040563,15.66606533,15.53013177,15.26194466,14.98690206,14.812459,14.79467182,14.92369304,15.11019594,15.19743079,15.00917852,14.40063173,13.29029699,11.68021071,9.648318174,7.313700279,4.787229744,2.140828591,-0.599319264,-3.439935756,-6.39723748,-9.455318505,-12.54282048,-15.54142475,-18.30418711,-20.67871145,-22.55021661,-23.86883051,-24.64130632,-24.92095456,-24.78666283,-24.3112592,-23.54193886,-22.51712041,-21.27463942,-19.87140243,-18.385349,-16.91004978,-15.51803698,-14.24319929,-13.06750721,-11.93867647,-10.78733218,-9.5576004,-8.217480206,-6.756363215,-5.178226012,-3.502332927,-1.771950584,0
-4.62757573,-4.102905968,-3.505669805,-2.862916337,-2.239244202,-1.718802085,-1.381989613,-1.269601404,-1.367765923,-1.598444033,-1.848943352,-2.008192822,-2.005502417,-1.823727468,-1.502328576,-1.122112536,-0.77778056,-0.551477175,-0.497594582,-0.625055525,-0.879328798,-1.14987084,-1.290977714,-1.158330846,-0.669023897,0.138772121,1.097454249,1.951459585,2.437869131,2.39496547,1.849759053,1.024022943,0.258502591,-0.108643619,0.134435548,0.993988521,2.281240269,3.694125391,4.931793213,5.776818458,6.135139259,6.019679792,5.505771257,4.680569725,3.637407466,2.477975674,1.31587916,0.27160993,-0.548440498,-1.100319648,-1.421644492,-1.618808599,-1.830399057,-2.171508107,-2.683450312,-3.3170265,-3.950582337,-4.42943621,-4.625399707,-4.474256766,-4.008690565,-3.362010599,-2.758505531,-2.461110746,-2.704238247,-3.565538698,-4.829504436,-5.854214235,-5.549737329,-2.531173821,4.474449638,16.05828619,31.54471412,48.65796933,63.68757268,72.26178771,70.55534625,56.54868802,30.90993688,-2.89997387,-39.38977786,-72.42482596,-96.73928381,-109.1306384,-108.9671852,-97.950917,-79.33137156,-56.92407268,-34.22713599,-13.84894512,2.698942983,14.91548383,23.04762852,27.77763784,29.9472104,30.36170543,29.67951755,28.38589499,26.80756974,25.13924115,23.47154665,21.81886429,20.13810233,18.36240994,16.44736287,14.42068103,12.39663063,10.56390424,9.13514937,8.280176522,8.053212834,8.380055579,9.084409101,9.943694162,10.75544315,11.40477988,11.8760561,12.23356529,12.58671412,13.0429985,13.65828259,14.41921501,15.24303059,16.00211078,16.56860783,16.86529278,16.89372835,16.74341823,16.55634954,16.4717693,16.57144573,16.85459421,17.23450408,17.57833386,17.75474053,17.66938928,17.27393616,16.56859132,15.57905046,14.3339914,12.85676501,11.16482277,9.258285083,7.126549592,4.75221456,2.109758758,-0.821496988,-4.033927332,-7.485760257,-11.08811293,-14.69791893,-18.14465232,-21.25884998,-23.89076303,-25.93708622,-27.35868497,-28.15966178,-28.37326406,-28.05047459,-27.2539906,-26.05478562,-24.54487753,-22.83366839,-21.03806173,-19.25302843,-17.52590946,-15.85243626,-14.19257571,-12.49931829,-10.76077459,-9.033191435,-7.421997738,-6.044697255,-4.988236488,-4.267990474,0
-0.017845226,-0.172293874,-0.29585333,-0.25556406,0.011567483,0.464811633,0.957104938,1.272724062,1.209389038,0.663958659,-0.3197182,-1.545951789,-2.723342859,-3.562527007,-3.870252712,-3.608911171,-2.898343703,-1.961836049,-1.044701617,-0.337226457,0.080495269,0.241508392,0.262137011,0.28909516,0.436823438,0.733021258,1.109868948,1.431580816,1.556662946,1.411720577,1.053394111,0.665594946,0.496445704,0.754620192,1.521652453,2.696877171,4.030331928,5.217602505,6.017408346,6.328318336,6.215817742,5.858980344,5.461385705,5.167656679,5.012385301,4.916597607,4.734985833,4.313834497,3.53993433,2.386732243,0.927462752,-0.684423994,-2.241666872,-3.528080376,-4.380755063,-4.730744647,-4.611699173,-4.150592356,-3.521117941,-2.889694747,-2.38591601,-2.108281302,-2.149937498,-2.633503133,-3.691881034,-5.370484159,-7.459932208,-9.326653414,-9.836953066,-7.510779809,-0.953589114,10.5009322,26.15876952,43.61284038,58.94592083,67.57385805,65.54555704,50.86409644,24.37440247,-10.17532619,-46.98351057,-79.67861041,-102.9084392,-113.5663044,-111.2878803,-98.14599162,-77.77222623,-54.29343301,-31.37712043,-11.6180567,3.650753932,14.21110699,20.63513377,23.89587823,25.02033998,24.86854804,24.03598315,22.85484115,21.4637944,19.91050201,18.23173773,16.49875611,14.82622192,13.35041245,12.1848432,11.38088604,10.91567797,10.6977853,10.59459301,10.4747469,10.25519361,9.913348668,9.488561944,9.063993429,8.743248636,8.609755532,8.713526215,9.055361795,9.591249464,10.23928168,10.91478348,11.55494895,12.14901422,12.73642657,13.38465016,14.14383146,15.00887343,15.8934944,16.65145401,17.13713474,17.26673844,17.0551347,16.62103308,16.13591349,15.73712312,15.46043967,15.22009777,14.83122049,14.08202329,12.81913028,11.00479463,8.714272056,6.092892264,3.292011552,0.415689789,-2.503240013,-5.47760555,-8.52381363,-11.62503063,-14.7159546,-17.68800759,-20.41695932,-22.77965464,-24.67113507,-26.0113911,-26.74613597,-26.85111228,-26.3514376,-25.32083963,-23.8731769,-22.15173473,-20.30418939,-18.45240251,-16.68413878,-15.05220378,-13.57824215,-12.26057538,-11.0837198,-10.02011498,-9.030014154,-8.061925532,-7.069179087,-6.022108813,-4.916743561,-3.791889645,0
0.77103232,1.204009911,1.644247607,1.977355486,2.13302727,2.084741801,1.84007345,1.434117056,0.927732206,0.396389194,-0.06797055,-0.369307743,-0.426007949,-0.203412943,0.266737321,0.873105677,1.451506349,1.82524869,1.870931737,1.562780748,0.989154568,0.318194418,-0.25701175,-0.594683302,-0.646236849,-0.462682961,-0.161817411,0.131784303,0.347565983,0.494579066,0.652472606,0.942743701,1.467309533,2.263598238,3.279521548,4.391072983,5.429010816,6.240132352,6.725825376,6.876206702,6.753760905,6.46982028,6.130845953,5.806617493,5.501773959,5.168861095,4.731375186,4.122532748,3.313974995,2.3319775,1.247013426,0.156444534,-0.838103916,-1.656964031,-2.25493528,-2.612577178,-2.735387255,-2.64187948,-2.354263168,-1.900249985,-1.338743777,-0.77160953,-0.36823053,-0.351899423,-0.934849794,-2.178805031,-3.829110432,-5.15737396,-4.948147456,-1.716849684,5.797163968,17.98289823,33.75685577,50.33106196,63.5789894,69.02590383,63.19121062,44.86390191,15.79321285,-19.53166206,-54.97693638,-84.35057824,-102.9760256,-108.7225291,-102.2121956,-86.24982874,-64.80444492,-41.89934269,-20.76543903,-3.410316361,9.38404597,17.80077692,22.59716614,24.74793481,25.17209082,24.59641167,23.51083628,22.2020129,20.80622311,19.379029,17.94194232,16.51159924,15.11128677,13.77185025,12.52906008,11.41822931,10.4752817,9.726433873,9.190785271,8.869650478,8.752017006,8.806179101,8.99356697,9.272597367,9.611577826,9.981925669,10.36747583,10.75468028,11.12586382,11.45671249,11.72852962,11.93341411,12.08340664,12.21669195,12.3916423,12.6690932,13.090065,13.66505629,14.36334287,15.11364696,15.81588006,16.36464605,16.66094244,16.62797231,16.22419549,15.44931421,14.33578245,12.93855706,11.32295473,9.546691393,7.640295018,5.601946077,3.405674714,1.012369266,-1.613180866,-4.47711252,-7.541279963,-10.72754933,-13.92695701,-17.01501197,-19.87371546,-22.4098536,-24.55314595,-26.25566818,-27.48373042,-28.20970877,-28.40806795,-28.0664254,-27.19820209,-25.85174771,-24.11822321,-22.1293887,-20.04291007,-18.0078839,-16.14667965,-14.53126463,-13.17188453,-12.02025372,-10.99506655,-10.00219029,-8.958281009,-7.809395299,-6.533889917,-5.145585217,-3.676925722,0
5.357042558,4.747787725,4.272941572,3.99054721,3.897965125,3.934032736,3.998650534,3.994494676,3.857406115,3.57720419,3.193965878,2.780374088,2.402879123,2.093727065,1.840238828,1.598092426,1.308977443,0.930557574,0.456950365,-0.089765841,-0.687469763,-1.321449884,-1.990658911,-2.703305677,-3.448905686,-4.170169769,-4.779573236,-5.179949177,-5.286756765,-5.05343285,-4.481286687,-3.594008398,-2.423363856,-1.016499453,0.554718862,2.17580228,3.679440708,4.8625873,5.544568302,5.617785559,5.094801826,4.109283187,2.888254961,1.681764825,0.701841754,0.061789751,-0.234723865,-0.28287049,-0.231989951,-0.241389892,-0.426738275,-0.840554768,-1.468446651,-2.248536069,-3.092697186,-3.912623974,-4.622462866,-5.136128909,-5.363447807,-5.229662883,-4.711634963,-3.888071976,-2.970182529,-2.287127606,-2.176077401,-2.798841819,-3.934808957,-4.835627111,-4.239397846,-0.662148718,7.061623823,19.13075885,34.24921471,49.49301886,60.78879945,63.95426657,55.99643723,36.24613713,6.869745008,-27.50256253,-60.93861604,-87.72776896,-103.7820701,-107.4660081,-99.65440841,-83.10593992,-61.5099554,-38.53280113,-17.11962852,0.837034668,14.48167866,23.79057596,29.29040274,31.77654152,32.09293427,31.0018509,29.11520938,26.86752549,24.53863515,22.29147775,20.20147367,18.28515598,16.54077107,14.9661442,13.56558512,12.35317024,11.34739549,10.54832007,9.929602783,9.446251812,9.048475486,8.696585799,8.382385437,8.132694466,7.994639903,8.01493257,8.217649985,8.583913572,9.054020997,9.545244895,9.980680198,10.32621961,10.60569237,10.89278364,11.2866973,11.87624708,12.69858637,13.73410746,14.91028066,16.11932742,17.24038976,18.16292097,18.78942046,19.05020328,18.91234119,18.38076934,17.48969929,16.28655515,14.80120246,13.0202865,10.89026441,8.343336507,5.342133258,1.92028542,-1.792928571,-5.594983628,-9.259818376,-12.60079819,-15.51556348,-18.00646038,-20.15809385,-22.0921085,-23.9127973,-25.66279175,-27.30607249,-28.73331108,-29.78991598,-30.31376115,-30.18490963,-29.34744394,-27.8311986,-25.74336526,-23.25657279,-20.56663843,-17.8724538,-15.34098036,-13.0996983,-11.21763573,-9.71816916,-8.573736344,-7.71827221,-7.048203626,-6.448318518,-5.799244761,-5.004962329,0
2.362325165,2.808220958,3.317938321,3.770530911,4.077126784,4.202448369,4.158665843,3.99503931,3.763149999,3.497189062,3.209530933,2.909708236,2.606396909,2.322091095,2.084442565,1.913312249,1.798457917,1.707865422,1.599662081,1.450049489,1.265704211,1.09102934,0.984873681,0.98298914,1.072708822,1.195241409,1.26382771,1.204401088,1.012699398,0.76698033,0.608084476,0.690140518,1.120042469,1.89326437,2.893002594,3.930020856,4.818473982,5.44225093,5.794957315,5.958692038,6.041840269,6.09897702,6.09266236,5.906321388,5.401969045,4.498576889,3.235085471,1.768053267,0.324509404,-0.87816764,-1.707625293,-2.156072485,-2.322422488,-2.368157163,-2.444568421,-2.637121507,-2.940942494,-3.275833546,-3.524835685,-3.594318732,-3.459639247,-3.19418092,-2.957542941,-2.94507335,-3.293111816,-3.950374665,-4.540678282,-4.284244773,-2.049183405,3.386630656,12.85825625,26.24207619,41.9877245,57.02977475,67.2738735,68.62267921,58.25165985,35.72460528,3.473601513,-33.60413997,-69.32401884,-97.76770938,-114.7072722,-118.4468025,-109.8789015,-91.87167067,-68.29761415,-43.05982872,-19.36500804,0.629210945,15.84142805,26.09113274,31.84209407,33.93267569,33.3662868,31.14835571,28.16612706,25.10586373,22.42745361,20.35586123,18.92161169,18.02030324,17.48735059,17.14618259,16.85032156,16.48751097,15.97490943,15.2494924,14.27439522,13.05216675,11.64425098,10.17777491,8.828359225,7.781643095,7.184914093,7.107672779,7.524490424,8.330224513,9.378416322,10.52798173,11.6789997,12.7852713,13.84060295,14.85138791,15.80563449,16.6598978,17.35049584,17.82130386,18.05169095,18.07199386,17.95294452,17.7747254,17.58750163,17.38481459,17.10497955,16.65312136,15.93520859,14.89343438,13.51995377,11.84010844,9.887481132,7.672129212,5.158588064,2.273988735,-1.046238897,-4.813408791,-8.941498208,-13.22902008,-17.38862071,-21.1260489,-24.20852092,-26.52218798,-28.08909381,-29.03187217,-29.50396623,-29.63821481,-29.50842338,-29.12875904,-28.47811451,-27.52666116,-26.25357182,-24.65886276,-22.76423557,-20.61723097,-18.30113305,-15.92952057,-13.63831306,-11.55780643,-9.780814565,-8.340466972,-7.215705109,-6.337530767,-5.621589666,-4.995851276,-4.407946546,0
-0.029771443,-0.331781643,-0.536908259,-0.63462202,-0.633064998,-0.565270587,-0.486335878,-0.450524978,-0.483770031,-0.56217188,-0.619711852,-0.575855171,-0.371229465,0.008625149,0.520190563,1.0735998,1.570056713,1.927505903,2.097523857,2.080435021,1.917029539,1.660463403,1.367648433,1.087092785,0.839608704,0.626301417,0.440205419,0.2739323,0.135878,0.069371577,0.141309154,0.43251035,1.006983999,1.879404805,2.996184976,4.248676339,5.492486043,6.589859618,7.445612362,8.013886705,8.285990086,8.273585232,7.993222575,7.456402714,6.683723911,5.707176871,4.567226727,3.301539817,1.940352588,0.504030613,-0.971503338,-2.413167299,-3.709090476,-4.726641698,-5.350405584,-5.532114785,-5.315245874,-4.816667494,-4.193338393,-3.60006677,-3.156997613,-2.949556147,-3.054368767,-3.54176698,-4.431597984,-5.59387633,-6.597584571,-6.59705037,-4.370539879,1.401450679,11.62509915,26.15178875,43.28193698,59.70020911,71.03614901,72.97997501,62.64705378,39.71379644,6.858588849,-30.73852776,-66.67907539,-94.96640907,-111.4568522,-114.676882,-105.8067169,-87.97973309,-65.25294678,-41.57051981,-20.01394596,-2.462153198,10.381063,18.7440483,23.42305839,25.43055825,25.72642346,25.06637985,23.93531348,22.58557535,21.11816871,19.56893525,17.96917059,16.3825038,14.89233537,13.57651459,12.48168416,11.60662115,10.90597527,10.31583477,9.778468805,9.26995335,8.812174817,8.460386555,8.276837026,8.30377665,8.54065137,8.94735079,9.461431994,10.01970429,10.58120889,11.12896351,11.65540285,12.15643536,12.62963672,13.06949743,13.48183693,13.89591473,14.35076701,14.8793512,15.49692779,16.18455804,16.88012382,17.49309627,17.92502094,18.09126782,17.93763569,17.44942167,16.6478274,15.56662998,14.22641925,12.62317929,10.73120537,8.510206627,5.933223153,3.009896306,-0.207042496,-3.634942935,-7.168936154,-10.6970105,-14.11074079,-17.31330288,-20.21048813,-22.71407193,-24.74825718,-26.25688685,-27.19548143,-27.54209885,-27.30375872,-26.51813795,-25.25528061,-23.63472782,-21.8129899,-19.95677128,-18.21460556,-16.68128561,-15.36532715,-14.19328813,-13.04395937,-11.79270997,-10.37013781,-8.796113868,-7.176464484,-5.664648994,-4.409586027,-3.493590832,-2.906317202,0
0.815614892,1.431631195,1.798367497,1.812286286,1.452281677,0.78863507,-0.030417153,-0.822453489,-1.420798875,-1.718351794,-1.68579601,-1.364410938,-0.829927623,-0.165175263,0.545280132,1.214460105,1.75242666,2.058768545,2.048510223,1.695016808,1.051976432,0.247764728,-0.535195517,-1.123078354,-1.410103295,-1.384521898,-1.116692622,-0.720035522,-0.284117148,0.165802419,0.676106702,1.33065569,2.191224395,3.242325797,4.384950003,5.462499046,6.324677042,6.893772628,7.190019485,7.301366585,7.324495529,7.295650433,7.154750281,6.769805882,6.002599296,4.785774056,3.17022109,1.320497444,-0.537259904,-2.189755161,-3.498050777,-4.415739391,-4.97130887,-5.237208486,-5.286133729,-5.170767581,-4.925963986,-4.579686294,-4.154194079,-3.691197362,-3.262640821,-2.988014885,-3.038137232,-3.617338947,-4.84933142,-6.615202838,-8.349883799,-8.927480085,-6.743649051,-0.135029499,11.94886287,29.17285472,49.29667243,68.22263721,80.81246347,82.28203321,69.7718049,43.51039949,7.092959027,-33.32962523,-70.64768525,-98.63600257,-113.4354395,-114.242765,-103.0425455,-83.65663717,-60.52340247,-37.60953223,-17.70591,-2.236994133,8.555551356,15.23372509,18.74848818,20.09538451,20.12318213,19.45862198,18.50572583,17.48584381,16.50339175,15.59633028,14.76991775,14.02048275,13.35308619,12.76727333,12.24504112,11.75328547,11.25224923,10.70907958,10.12861304,9.561654209,9.083869399,8.7619999,8.622135485,8.629369392,8.699525739,8.742496032,8.71309293,8.632050914,8.573318609,8.637347432,8.904255633,9.3960154,10.07809051,10.89273554,11.77905719,12.69951485,13.64471443,14.62234516,15.63040338,16.65223432,17.64864018,18.55942338,19.29998426,19.76803473,19.84591575,19.41484422,18.39147702,16.76285183,14.60276661,12.06509833,9.353056872,6.646916772,4.049531649,1.562891716,-0.897061746,-3.460290514,-6.225554758,-9.208340412,-12.32839378,-15.43186874,-18.32947853,-20.85631323,-22.90851549,-24.44922797,-25.49348516,-26.08239954,-26.25234708,-26.01966499,-25.37723701,-24.30753737,-22.81054871,-20.92744049,-18.75488248,-16.44584971,-14.18457848,-12.14478292,-10.45082079,-9.145236474,-8.185354345,-7.462802935,-6.832664582,-6.146328796,-5.294089827,-4.220362484,-2.935062338,0
2.568317343,3.571214577,4.349994975,4.732133674,4.617852999,3.995187605,2.930067847,1.562679671,0.094746849,-1.240509463,-2.224876242,-2.700934787,-2.624130632,-2.074579106,-1.228384645,-0.296848944,0.542743236,1.207250094,1.706890218,2.101034454,2.439119395,2.709029809,2.819147594,2.638039083,2.068349211,1.110359178,-0.110057993,-1.359085375,-2.353453477,-2.845411378,-2.692648603,-1.883600938,-0.531526805,1.156356428,2.9308582,4.552594188,5.826162512,6.628013409,6.921861296,6.752263887,6.228296996,5.487134193,4.655989482,3.815190737,2.992790951,2.167120814,1.301186978,0.371752349,-0.59644855,-1.537206648,-2.355592262,-2.962883923,-3.306985297,-3.401372611,-3.307706719,-3.113561459,-2.895888469,-2.688915784,-2.474719955,-2.231712839,-1.983985115,-1.849623117,-2.054027657,-2.873313625,-4.472782301,-6.709389811,-8.952513542,-10.01038278,-8.272650141,-2.14299317,9.31521119,25.71106358,44.87117511,62.91247197,74.98744246,76.56892437,64.87755636,40.00564206,5.227047699,-33.68707768,-69.92918352,-97.38466751,-112.1077286,-113.0582689,-101.9444719,-82.37535716,-58.71485325,-34.99720796,-14.19363054,2.055278537,13.32736249,20.09458877,23.31924527,24.09038247,23.38325078,21.94195228,20.25608636,18.60502703,17.13440514,15.90959474,14.94573222,14.21695248,13.66494622,13.20112416,12.73264215,12.18859299,11.54366892,10.81532702,10.05815909,9.344562597,8.748994775,8.326753348,8.106773496,8.082392237,8.210024027,8.420641467,8.650196416,8.866983543,9.099398378,9.435270829,9.990361405,10.85639414,12.05992455,13.52634032,15.08968586,16.53787086,17.67132019,18.34707537,18.51402865,18.21508846,17.56006888,16.69332598,15.76470169,14.90529682,14.20283004,13.68391037,13.30410504,12.94440491,12.42386839,11.53973431,10.12437816,8.084782552,5.432763089,2.275799992,-1.220201896,-4.883605463,-8.574505925,-12.20638323,-15.72801727,-19.09563103,-22.24459205,-25.06397343,-27.40201251,-29.0990827,-30.0220844,-30.09628622,-29.34379065,-27.88252955,-25.90195429,-23.62656041,-21.27917965,-19.0337068,-16.99387372,-15.19254389,-13.61180012,-12.1964559,-10.87996892,-9.604402602,-8.332657121,-7.047652976,-5.76402539,-4.5251251,-3.398369205,-2.458298004,-1.77055399,0
2.190828397,1.792883834,1.348672055,0.891014626,0.473750133,0.163185193,0.030854115,0.111583724,0.401963986,0.834816891,1.305731184,1.701980831,1.95091651,2.020494807,1.937489135,1.757827591,1.543114939,1.335509781,1.167174296,1.048899604,0.979955417,0.945109464,0.912440107,0.828252136,0.638592879,0.313489886,-0.127685547,-0.600026446,-0.957180991,-1.028725892,-0.674288387,0.172308126,1.457699837,2.99655509,4.504742968,5.672099803,6.236734649,6.080524037,5.269408047,4.038928453,2.716564221,1.625649759,0.969786773,0.785179083,0.943917381,1.212626351,1.334102118,1.118766569,0.491311573,-0.503668787,-1.724350043,-2.97813017,-4.082267105,-4.910260738,-5.403723488,-5.57151035,-5.463259714,-5.129385101,-4.596975447,-3.88165216,-3.018266694,-2.112749121,-1.383178719,-1.13643421,-1.659277154,-3.028669692,-4.893453832,-6.31644052,-5.816024421,-1.69837752,7.332430839,21.45863412,39.1639292,57.11198847,70.70191003,75.2374802,67.35675707,46.29071997,14.41418267,-23.17625719,-59.94371093,-89.58800276,-107.6215227,-112.2913143,-104.6422463,-87.82016295,-65.97342938,-43.1176545,-22.32957314,-5.396547869,7.120688313,15.55369941,20.69672686,23.43808399,24.53788195,24.53486641,23.76976199,22.46018565,20.78465022,18.9177333,17.04169281,15.32403962,13.88624075,12.77740365,11.97499167,11.39695501,10.92654229,10.44382806,9.853772861,9.117696619,8.26773724,7.40613631,6.686826991,6.272745902,6.272691486,6.700271409,7.465003566,8.387980835,9.267831152,9.950623453,10.37854294,10.5908413,10.70348901,10.84571979,11.11941602,11.5655756,12.17129824,12.8849502,13.64021453,14.35565957,14.95343617,15.3683793,15.55516046,15.50522219,15.25941555,14.884786,14.43640015,13.93420964,13.3436831,12.58627445,11.57180359,10.23801748,8.561088435,6.548623076,4.210237499,1.541629767,-1.473069809,-4.830604869,-8.468509055,-12.23118275,-15.88085859,-19.14258214,-21.76990678,-23.60648315,-24.62565308,-24.91347862,-24.62346941,-23.92278657,-22.95027795,-21.78888025,-20.48630046,-19.081721,-17.62852101,-16.19740289,-14.87579389,-13.73268355,-12.79361698,-12.02329322,-11.33645245,-10.61516894,-9.753910766,-8.69622307,-7.456547763,-6.108147401,-4.758354246,0
0.254781561,-0.03366663,-0.253340615,-0.394668185,-0.482837797,-0.551835015,-0.614977969,-0.656154086,-0.636861178,-0.519926436,-0.28634219,0.0494409,0.442740475,0.828726131,1.140636415,1.315492335,1.307726541,1.092617881,0.672092766,0.073171965,-0.645255083,-1.397022576,-2.072546248,-2.559186868,-2.764938599,-2.643337926,-2.208889257,-1.542059058,-0.761144491,0.022510109,0.735955871,1.36824841,1.969432346,2.615720966,3.352654402,4.171294186,4.984400068,5.645019744,5.98919254,5.904207028,5.360339718,4.445681617,3.342367534,2.276967996,1.441617431,0.942015777,0.756813487,0.756430825,0.754403911,0.58611204,0.16074633,-0.515726731,-1.354946479,-2.228746248,-3.024395262,-3.668719532,-4.118736775,-4.35213969,-4.34619808,-4.076103352,-3.544225989,-2.833169303,-2.124948809,-1.693592588,-1.816431659,-2.613082473,-3.852911379,-4.817124237,-4.291831655,-0.808834852,6.853539919,19.04149962,34.6667448,50.98727558,63.96392741,69.22148926,63.33311693,45.03804763,15.93404038,-19.68331272,-55.84290808,-86.40138928,-106.5510649,-113.8703707,-108.6231012,-93.29307711,-71.66580727,-47.78978613,-25.11105754,-5.958859537,8.559313395,18.3913331,24.20968057,27.03758119,27.92066477,27.71881584,26.99803615,26.03600333,24.90441411,23.57692267,22.01821571,20.24550528,18.3379588,16.4113437,14.59003919,12.9803571,11.65799938,10.67222092,10.04544504,9.761757742,9.766848017,9.961198111,10.20071013,10.33021482,10.23234328,9.855723185,9.241373511,8.524083006,7.893218349,7.531157892,7.571230756,8.061301295,8.953977213,10.12697342,11.42887057,12.71903647,13.89989514,14.92968634,15.81677962,16.59584632,17.29218088,17.89851341,18.3729738,18.6461508,18.63487659,18.27411492,17.53328544,16.41245216,14.93877999,13.15884882,11.11965782,8.86034702,6.410106574,3.783581712,0.989494297,-1.955841755,-5.020724918,-8.148336034,-11.25018336,-14.22069692,-16.96024866,-19.39210692,-21.47511571,-23.2104336,-24.62537166,-25.74423708,-26.56526454,-27.05543566,-27.15267805,-26.79315499,-25.94710267,-24.64930333,-22.99959096,-21.14904517,-19.26279319,-17.48200397,-15.88930633,-14.50001057,-13.27055741,-12.11999336,-10.95304424,-9.688087802,-8.279441127,-6.728990346,-5.092865736,0
1.217273313,1.161503494,1.102972463,1.049414172,1.030636633,1.069088365,1.164598244,1.279847835,1.355551071,1.330417432,1.177426241,0.914125275,0.604883728,0.332103065,0.169434454,0.152664768,0.275783291,0.495724231,0.762223739,1.033956193,1.287339502,1.506383205,1.675729598,1.757003983,1.699401829,1.458316633,1.026335827,0.448140008,-0.157219768,-0.626738296,-0.787254838,-0.502994227,0.285864014,1.52094133,3.041431438,4.607199668,5.957943314,6.880886527,7.282397657,7.197124422,6.779477046,6.236189936,5.748502187,5.395287157,5.147355181,4.880383898,4.440178905,3.708927509,2.665830262,1.382076142,0.002186979,-1.301030811,-2.370847785,-3.108789361,-3.478360454,-3.497011565,-3.221728495,-2.733716372,-2.123907782,-1.488635486,-0.940433249,-0.619560236,-0.697431773,-1.349011479,-2.680898054,-4.587851223,-6.58483745,-7.68840362,-6.473347961,-1.390965838,8.639686788,23.53643232,41.51167727,59.02407042,71.40713682,74.09135877,64.0549296,41.01233792,7.822743355,-30.08848905,-66.10957918,-94.15314022,-110.1372042,-112.765333,-103.4470486,-85.51778957,-63.12948349,-40.19576445,-19.6584594,-3.193169082,8.697368714,16.37212727,20.66590374,22.53179959,22.81239755,22.13416723,20.90092542,19.35782023,17.68068013,16.02348843,14.53985378,13.36004156,12.54742183,12.07619084,11.84260004,11.69693181,11.49962406,11.17008229,10.69392462,10.11350321,9.503805253,8.937604492,8.462581609,8.104593315,7.873142247,7.764436863,7.769119016,7.878725494,8.081512376,8.359706886,8.695175582,9.073935845,9.483576635,9.914301125,10.3635259,10.84123887,11.370012,11.98031011,12.70816957,13.57349306,14.54940867,15.54836389,16.43735325,17.05058384,17.23588802,16.90120764,16.03897033,14.71010596,13.027526,11.10673256,9.03091043,6.831697523,4.498304035,1.988241515,-0.73660786,-3.686142188,-6.829058209,-10.08967542,-13.34971781,-16.47008728,-19.31353477,-21.76048331,-23.72550107,-25.163434,-26.06517541,-26.4497607,-26.35282246,-25.81230953,-24.87088134,-23.57713557,-21.98667054,-20.16892986,-18.21451471,-16.22212923,-14.28573481,-12.48029442,-10.8531726,-9.416791328,-8.155158524,-7.038142003,-6.036799852,-5.127541727,-4.294059231,-3.525785345,-2.812904471,0
-0.741335811,-0.516206712,-0.329188795,-0.208514464,-0.158249198,-0.164163475,-0.197087419,-0.228725097,-0.241498657,-0.233638531,-0.216691228,-0.213407374,-0.249457598,-0.333916866,-0.457342161,-0.595094268,-0.710154304,-0.765266481,-0.748313168,-0.672703532,-0.565338867,-0.458035569,-0.372124706,-0.297449243,-0.200567084,-0.049777602,0.171793757,0.458355318,0.779195148,1.104395774,1.434863654,1.808263691,2.291045802,2.948625817,3.80065011,4.793352055,5.807039034,6.68030805,7.264389074,7.477238928,7.325995933,6.893466683,6.308826273,5.69784357,5.135940963,4.637189641,4.162880237,3.644970439,3.013624127,2.235036674,1.31656718,0.311075567,-0.697178195,-1.60380921,-2.322951291,-2.798614652,-3.017550522,-3.005613062,-2.825259988,-2.544326066,-2.234432429,-1.979395446,-1.885642203,-2.083840653,-2.71070777,-3.817959042,-5.225134538,-6.376911165,-6.268865109,-3.567253142,3.014612993,14.13091444,29.19577677,45.99721752,60.84182229,69.31651737,67.51943894,53.37562573,27.57230732,-6.322899427,-42.6470637,-75.08261903,-98.26835558,-109.0573911,-107.0378066,-94.24403837,-74.28370767,-51.23953834,-28.71146233,-9.224445671,5.933616243,16.5483097,23.13394278,26.5615017,27.75968291,27.5321792,26.48247453,25.01076304,23.35812358,21.65950138,19.99025798,18.38975968,16.88626577,15.50072231,14.24666888,13.1292197,12.15074195,11.30747814,10.59458438,10.01037244,9.558733289,9.247934827,9.083205286,9.060294718,9.161660657,9.354506209,9.595552433,9.841528771,10.0609312,10.23750554,10.37327053,10.4798345,10.58062518,10.70052489,10.86673709,11.10447347,11.44610201,11.91651717,12.52886501,13.27463548,14.12126492,14.99749198,15.8049969,16.43359785,16.77708668,16.74750523,16.29960802,15.43219653,14.18188741,12.61003236,10.78891628,8.777684359,6.61487834,4.315062589,1.880115196,-0.695537026,-3.407988823,-6.232785149,-9.121546844,-12.00840411,-14.80647605,-17.41573923,-19.73737752,-21.68054341,-23.16973067,-24.16078637,-24.64833669,-24.66447539,-24.27332122,-23.56018196,-22.61310706,-21.5072071,-20.28962005,-18.97933918,-17.57501712,-16.06862178,-14.46346362,-12.79429551,-11.12723943,-9.54842889,-8.145074006,-6.97967952,-6.063296759,-5.350410367,-4.749153424,0
0.755771421,0.989769672,1.229769492,1.423800896,1.535973429,1.556969607,1.508220321,1.43086904,1.371566227,1.363889534,1.41747313,1.510515212,1.609337433,1.68009005,1.696875246,1.651861717,1.559955557,1.44009072,1.307484426,1.173153139,1.037027831,0.887955395,0.71341261,0.509344445,0.27862252,0.039449549,-0.174236094,-0.314039134,-0.332757139,-0.180483143,0.179267086,0.760334984,1.544505982,2.488130193,3.507768334,4.497202547,5.344373981,5.953788273,6.262193137,6.261200788,5.988879068,5.517261832,4.925635342,4.276354254,3.602217414,2.910368556,2.187958575,1.423070661,0.620794662,-0.197447717,-0.997698845,-1.738041231,-2.380524602,-2.90285782,-3.301701984,-3.592246704,-3.801410431,-3.960477294,-4.090806452,-4.194154735,-4.262242159,-4.303610957,-4.36644934,-4.551493582,-4.978078536,-5.679079438,-6.444717123,-6.686116801,-5.407795056,-1.398712176,6.337803062,18.00076717,32.46850045,47.1121672,58.15975149,61.60730779,54.44778157,35.80651908,7.523227603,-26.09394517,-59.30165552,-86.39439055,-103.1278403,-107.6349719,-100.5893414,-84.65982907,-63.55198591,-41.00447128,-20.01475252,-2.460440581,10.88958453,20.11365729,25.80174913,28.73507714,29.6667464,29.22626369,27.90493234,26.06525874,23.97300623,21.82644483,19.75932545,17.8388732,16.08379843,14.48111024,12.99795024,11.60455124,10.29808166,9.100059502,8.046101877,7.1837062,6.560696148,6.202803568,6.109298736,6.25735127,6.597600597,7.060067365,7.576199971,8.08781426,8.552997853,8.952440527,9.286743784,9.561644801,9.786763927,9.972920248,10.13129442,10.2806751,10.45291425,10.68317671,10.9954646,11.39453091,11.84961235,12.28978128,12.62067624,12.75588785,12.634675,12.24307878,11.62194801,10.84206349,9.964381941,9.018983382,7.984333885,6.786089675,5.333819746,3.561157999,1.446580264,-0.96134901,-3.552306551,-6.187766677,-8.736859024,-11.09662356,-13.22309587,-15.11962301,-16.81922864,-18.34932848,-19.71437157,-20.87182395,-21.74906313,-22.2625163,-22.35762746,-22.02804951,-21.32874415,-20.35757945,-19.22371487,-18.01292893,-16.76818793,-15.48431587,-14.12145738,-12.64060504,-11.02890059,-9.312966719,-7.55895515,-5.863343067,-4.320881824,-3.000557423,-1.934899835,0
0.476222654,0.441829165,0.446502362,0.448831089,0.422556264,0.36600538,0.302571588,0.27143898,0.30846077,0.429835955,0.624758142,0.851614378,1.052514704,1.165569128,1.142202981,0.96985295,0.682598678,0.345958528,0.040813745,-0.159155149,-0.2210443,-0.16239128,-0.035157272,0.099100859,0.187432235,0.20731955,0.164159407,0.076235804,-0.039583472,-0.161657817,-0.256737388,-0.265239507,-0.103335482,0.31429632,1.028149977,2.001242959,3.103652456,4.13980369,4.905408677,5.264112767,5.186383697,4.752330576,4.116949671,3.450143266,2.871168968,2.422338038,2.083080937,1.791539741,1.483729636,1.119328663,0.693762031,0.219593318,-0.276324859,-0.766510063,-1.219714801,-1.606312951,-1.88869732,-2.030878023,-2.006607011,-1.817670811,-1.499699209,-1.138067791,-0.868507569,-0.864802105,-1.286287384,-2.194420616,-3.418462851,-4.427280641,-4.268325766,-1.697022063,4.471440504,14.81738481,28.74750018,44.14289749,57.50697341,64.69655692,62.08290624,47.79200978,22.56735837,-10.13418758,-44.90274465,-75.7412638,-97.57948636,-107.4450786,-104.9520046,-92.03241226,-72.11711357,-49.12403951,-26.56536591,-6.969689829,8.302340476,18.930203,25.34918221,28.41393232,29.09521029,28.28378466,26.68367394,24.77719033,22.84771717,21.03669904,19.38366907,17.87556639,16.47870306,15.16702181,13.92692141,12.77578215,11.75276855,10.90792511,10.27212049,9.850502409,9.60412841,9.46007397,9.334325829,9.168670096,8.942828781,8.689459878,8.480628753,8.400430025,8.513981369,8.84793306,9.378898265,10.04829528,10.78281463,11.51477813,12.20372343,12.84336047,13.44935827,14.0459362,14.64676626,15.23907484,15.78147346,16.20960977,16.44876834,16.43855484,16.14399045,15.55837747,14.70809336,13.63772229,12.38816591,10.98922978,9.455032543,7.772064609,5.915814135,3.863077869,1.599928739,-0.873183826,-3.527205139,-6.312824989,-9.162627377,-12.00394271,-14.76008462,-17.3600998,-19.74057937,-21.84713219,-23.61948455,-25.00106637,-25.94252074,-26.40807441,-26.38589225,-25.90645466,-25.03293391,-23.85432352,-22.47164729,-20.98146474,-19.46023013,-17.96195757,-16.51627018,-15.13143663,-13.80174656,-12.50944138,-11.23615345,-9.969090897,-8.711187576,-7.476710163,-6.295331594,0
0.604766802,0.45607278,0.324055857,0.167092656,-0.04088652,-0.3052492,-0.596576311,-0.864032858,-1.049922262,-1.116594256,-1.054550531,-0.887690682,-0.669239072,-0.46532438,-0.328106809,-0.285836732,-0.337670448,-0.448081117,-0.559970028,-0.620369855,-0.588746943,-0.450533166,-0.221170585,0.055327232,0.32707328,0.541047626,0.666663164,0.699219933,0.675808446,0.667656178,0.771678713,1.078975883,1.655250091,2.508039609,3.570403029,4.709964937,5.762549311,6.573006008,7.037794531,7.140927039,6.944916603,6.558793079,6.093768101,5.625809374,5.164046828,4.66414404,4.059003519,3.29330106,2.347785975,1.258172023,0.103811604,-1.014753442,-1.998315253,-2.766396559,-3.273544104,-3.506650258,-3.479510639,-3.227466655,-2.796440124,-2.240151168,-1.635875365,-1.092932073,-0.756698925,-0.80069748,-1.363105515,-2.422577015,-3.656487134,-4.325616336,-3.281388193,0.799593315,8.941288002,21.2690618,36.4909556,51.74436098,63.0168986,66.13434517,58.03996911,37.95066415,7.917380853,-27.4796103,-62.24377369,-90.48658406,-107.8764366,-112.5410296,-105.2040341,-88.60997605,-66.5590294,-42.90565913,-20.79607262,-2.272542463,11.74883856,21.25743598,26.841708,29.37620313,29.7705469,28.81764517,27.12780495,25.1132454,23.02077797,20.98134923,19.05717282,17.27549052,15.65044154,14.19160658,12.90785468,11.80228204,10.87756088,10.13593249,9.579187622,9.202220021,8.994590514,8.928973358,8.966693953,9.062388048,9.177546631,9.288788168,9.398034648,9.523512782,9.69219228,9.930190765,10.25310513,10.66109233,11.14929892,11.71659439,12.36021511,13.07850547,13.87006668,14.71900062,15.58105651,16.3974607,17.09620599,17.59786484,17.83285875,17.76052216,17.36275928,16.64615882,15.64051231,14.38940956,12.93611011,11.31971693,9.565631785,7.672951179,5.61156129,3.3305872,0.770042387,-2.114118899,-5.31809744,-8.773555175,-12.3536671,-15.88568294,-19.18524942,-22.09593559,-24.51143801,-26.37403591,-27.67199056,-28.41984373,-28.63910819,-28.35512826,-27.60403781,-26.43723392,-24.93193424,-23.19040445,-21.32486825,-19.44140149,-17.62286737,-15.9117906,-14.31179121,-12.80043062,-11.34658717,-9.930041808,-8.555110999,-7.246109744,-6.039697604,-4.968661153,-4.046544179,0
2.237590654,2.065050967,1.949059239,1.869919808,1.779025317,1.622759585,1.374064962,1.030383115,0.626497815,0.229034037,-0.09088474,-0.287252597,-0.337666966,-0.259876108,-0.106742698,0.057467258,0.178770332,0.220557082,0.18580552,0.112218144,0.053514027,0.06359293,0.176565005,0.383357979,0.634529591,0.857242807,0.972882758,0.930460901,0.733283766,0.448152475,0.193686258,0.115818767,0.343676938,0.947339109,1.907125054,3.11195089,4.385568223,5.533135993,6.398500635,6.90646584,7.07097212,6.974385412,6.724510721,6.405245221,6.043150956,5.609952432,5.039251293,4.269049364,3.271231625,2.076593691,0.766916203,-0.534936413,-1.706168478,-2.644284246,-3.291982163,-3.638842724,-3.722803585,-3.596849334,-3.310540176,-2.903656075,-2.415374081,-1.900144127,-1.470733832,-1.318595113,-1.664384074,-2.645931118,-4.145258066,-5.601700348,-5.916746826,-3.591974795,2.85508174,14.23620054,30.01458679,47.88306181,63.90648856,73.34279118,71.97823414,57.53943884,30.68805694,-4.84128841,-43.08401997,-77.37978066,-102.0702639,-113.8169618,-112.1518385,-99.16573983,-78.59169335,-54.66597862,-31.14169457,-10.6706372,5.371524953,16.71846627,23.86358216,27.68175097,29.11432663,28.97132748,27.8577551,26.17926299,24.19771413,22.09421072,20.01419471,18.07205881,16.34616412,14.86804998,13.62029152,12.5476666,11.59087353,10.71344085,9.909869583,9.203253661,8.635160041,8.242569045,8.045159834,8.050696715,8.257747608,8.656397657,9.230528918,9.944009572,10.72271802,11.45748217,12.02092652,12.29909468,12.23884571,11.88274686,11.36527907,10.88407633,10.64554171,10.80043624,11.3979574,12.3808853,13.60395555,14.87322925,15.99295925,16.80633454,17.21362685,17.17610927,16.70963804,15.86957803,14.7224277,13.32007468,11.68459672,9.795589322,7.589653036,4.98496911,1.919466507,-1.62037345,-5.567419309,-9.761230968,-13.96520543,-17.91617755,-21.36732977,-24.13988125,-26.15175797,-27.42017569,-28.02843607,-28.09839188,-27.75176943,-27.08614933,-26.16568313,-25.02801201,-23.68845109,-22.15294271,-20.43185655,-18.54687067,-16.5398543,-14.47872737,-12.45270755,-10.55699929,-8.879713933,-7.484212832,-6.392445241,-5.585402368,-5.010591407,-4.591660985,-4.240787106,0
3.250459623,2.887839713,2.52627149,2.211972897,1.976505631,1.82566102,1.738155604,1.680171317,1.624138438,1.554905375,1.475119287,1.401681435,1.346474859,1.300055355,1.230806222,1.086888597,0.807600577,0.35660939,-0.258013128,-0.978156013,-1.703586422,-2.316454424,-2.727513797,-2.89906711,-2.859552664,-2.692934374,-2.505426589,-2.379751913,-2.349345315,-2.373260823,-2.34407187,-2.120500402,-1.575407846,-0.641330708,0.649369597,2.166532089,3.708262149,5.056181171,6.040055102,6.582730252,6.699862744,6.481821794,6.049896866,5.50465209,4.895221843,4.223879102,3.461232221,2.567280459,1.520533071,0.341000266,-0.908531361,-2.135914667,-3.229112184,-4.08197159,-4.622493371,-4.828533976,-4.72176374,-4.362828776,-3.827870783,-3.195162787,-2.548650293,-2.002054574,-1.717423097,-1.907931041,-2.763581643,-4.295367794,-6.12895875,-7.337352516,-6.438981874,-1.706299684,8.221272758,23.56584004,42.75487616,62.25286906,77.14228532,82.38668629,74.40151853,52.43263109,19.14256868,-19.89773411,-57.66690807,-87.55143448,-105.0347271,-108.6319673,-99.8453194,-82.27916354,-60.38880811,-38.27337738,-18.87315778,-3.690303092,7.021874607,13.84569103,17.73951899,19.67609525,20.42839003,20.5169358,20.2346116,19.71677319,19.00823964,18.12446566,17.07578083,15.88625397,14.59304187,13.25708492,11.95271137,10.76192322,9.759914667,9.004511144,8.512754395,8.262168748,8.20032043,8.259326442,8.374751383,8.503165984,8.627230771,8.747366396,8.874721709,9.023462198,9.212260408,9.457560753,9.77912022,10.19827999,10.72879497,11.36434747,12.08405205,12.84796529,13.60449623,14.30660846,14.91908829,15.41191842,15.76698428,15.96940926,15.99626984,15.82136451,15.42238318,14.77271066,13.8518728,12.64874257,11.15467049,9.367075985,7.298390939,4.967799414,2.40488627,-0.347242159,-3.244953771,-6.244925683,-9.296849136,-12.34166693,-15.31149295,-18.11210888,-20.63629155,-22.77339381,-24.42766062,-25.52436873,-26.03892974,-25.98619831,-25.4244367,-24.438264,-23.13541013,-21.61858848,-19.98611469,-18.31315774,-16.65356618,-15.03658435,-13.47993288,-11.99059794,-10.57989171,-9.266138188,-8.073684491,-7.022398041,-6.124329825,-5.371202709,-4.734395251,-4.16978271,-3.631573547,0
2.65297018,2.477408206,2.359259958,2.300097844,2.28997805,2.311893381,2.344807383,2.375941523,2.398694823,2.406024654,2.391325613,2.346907869,2.25784728,2.109574754,1.897538671,1.62566119,1.313285358,0.99458163,0.705905317,0.47833547,0.337841279,0.287457416,0.30838654,0.368699955,0.425841788,0.430365287,0.353295376,0.196335594,-0.001764612,-0.159830806,-0.164291789,0.095857281,0.692996856,1.629755489,2.820813687,4.105067939,5.286609126,6.190420484,6.710814939,6.834542644,6.629548875,6.203036332,5.656291761,5.046676819,4.376535471,3.611280028,2.717919872,1.687940885,0.553277189,-0.611486899,-1.711405575,-2.660784442,-3.396898322,-3.8880723,-4.140522474,-4.186453006,-4.064657035,-3.808970552,-3.44383326,-2.988629954,-2.479125089,-2.004819977,-1.734249067,-1.900264671,-2.717706787,-4.224014481,-6.080349088,-7.409743362,-6.814233183,-2.665513843,6.307322679,20.30250222,37.83173044,55.57961086,68.93666466,73.18862257,64.98941383,43.65273482,11.7019708,-25.58674708,-61.53952647,-89.84172552,-106.1309971,-108.9059698,-99.51783284,-81.3782813,-58.79046936,-35.80844217,-15.43907295,0.661954299,12.07012847,19.23770071,23.07303104,24.57807258,24.6236356,23.85423393,22.68703932,21.35682988,19.98150591,18.62064868,17.30939053,16.0691547,14.91505882,13.85575272,12.88838587,12.00729167,11.21448404,10.52042416,9.942834049,9.502497138,9.210031373,9.057712073,9.020631694,9.062675675,9.146376415,9.24762541,9.358679007,9.489059554,9.658687337,9.890487394,10.19777363,10.58394493,11.04221374,11.55766438,12.11058326,12.68563708,13.27352629,13.86130278,14.43333781,14.96583753,15.41752261,15.72709983,15.83171965,15.6711021,15.20038478,14.40390051,13.30045556,11.92718726,10.33071835,8.553465762,6.614442121,4.502815926,2.192894863,-0.343014637,-3.122260465,-6.122724064,-9.274562456,-12.47184748,-15.58540714,-18.47183229,-21.00750909,-23.09967984,-24.68965992,-25.75235764,-26.30084994,-26.36691833,-25.99790534,-25.24782307,-24.17139807,-22.81591363,-21.23013498,-19.46489014,-17.57982603,-15.64585921,-13.7439374,-11.95271626,-10.33392388,-8.919962753,-7.710323005,-6.674976079,-5.763686157,-4.929235522,-4.139031015,-3.381342982,-2.660896177,0
2.720350922,2.898483459,3.050163463,3.16715639,3.240964623,3.265054399,3.234391082,3.140187899,2.989741783,2.796745553,2.579570806,2.361031253,2.168186022,2.009520795,1.880810869,1.768460816,1.649172309,1.497744392,1.304998785,1.07400995,0.8169167,0.558128337,0.320873487,0.11743244,-0.049660263,-0.186598839,-0.307438975,-0.41557711,-0.491309788,-0.487386999,-0.328502945,0.069061441,0.763028596,1.751171719,2.952271128,4.204627652,5.304701914,6.064034894,6.36704582,6.205443102,5.681363064,4.966504137,4.24013664,3.630290081,3.179827348,2.842050307,2.510831626,2.068645675,1.430350377,0.572857121,-0.455915743,-1.550341675,-2.577633137,-3.411712775,-3.964943075,-4.202082596,-4.142529469,-3.847759932,-3.394569326,-2.859963511,-2.326163506,-1.892242594,-1.684037789,-1.865816652,-2.57923427,-3.818207416,-5.272617556,-6.204871031,-5.432367237,-1.575685403,6.446550971,18.79817548,34.1865528,49.68831911,61.20732019,64.50674175,56.51916778,36.53460415,6.769114344,-28.00580136,-61.64505271,-88.21417132,-103.4905901,-105.8784511,-96.46951187,-78.3849609,-55.72018061,-32.45345345,-11.64174823,4.932006124,16.71288872,24.07138087,27.89492347,29.21540144,28.95685467,27.81395213,26.22978914,24.44762691,22.59049266,20.72534847,18.90811026,17.20182354,15.66912925,14.35445834,13.27447951,12.40847144,11.70490955,11.09993318,10.53611134,9.98068688,9.437713873,8.945237389,8.558446167,8.332285003,8.300019181,8.460034279,8.775572645,9.19373786,9.658306846,10.12570128,10.57680119,11.01969297,11.46959955,11.9463606,12.46337239,13.01989838,13.59566797,14.16234859,14.67884852,15.10176522,15.38781751,15.50177362,15.41981475,15.13239232,14.63712635,13.93918399,13.04028249,11.92790723,10.58039299,8.968130555,7.060728902,4.844897655,2.339392534,-0.409697351,-3.31937603,-6.280335618,-9.173542438,-11.89179233,-14.34678054,-16.49548433,-18.34363712,-19.94094066,-21.35674483,-22.65632467,-23.86184019,-24.93185477,-25.76233154,-26.21438898,-26.15537478,-25.50567641,-24.27229534,-22.55292162,-20.50910883,-18.32761544,-16.1743321,-14.15820449,-12.31580773,-10.62871315,-9.044580687,-7.515018285,-6.019652196,-4.585395199,-3.27533185,-2.172786254,-1.34643661,0
1.380578543,1.209616537,1.09106971,1.035846961,1.031596882,1.054316511,1.083923385,1.127193656,1.214956064,1.389970413,1.695035482,2.139945574,2.681633086,3.225927303,3.655018858,3.850714366,3.745064569,3.348604423,2.754310665,2.100386655,1.538755068,1.185891587,1.089326778,1.216635486,1.486663961,1.795972148,2.051771254,2.199802297,2.241289995,2.221342249,2.217493112,2.318011022,2.595447611,3.076657832,3.728804736,4.457262099,5.129509534,5.609901238,5.807575333,5.707233092,5.370884952,4.902442153,4.40808214,3.944651335,3.493826829,2.974194979,2.291104349,1.378801209,0.242672107,-1.027619601,-2.279275831,-3.350348285,-4.115371487,-4.51815344,-4.5818035,-4.389813902,-4.044918656,-3.631068069,-3.197081788,-2.754094711,-2.304096532,-1.878006802,-1.574462984,-1.555463379,-2.007003853,-3.02275881,-4.453792766,-5.746999935,-5.90273186,-3.607412969,2.368641573,12.606119,26.44297626,41.6611882,54.66795633,61.29169983,57.97782081,43.0396463,17.47112441,-15.03200596,-48.92642787,-78.24148472,-98.10623415,-105.8744413,-101.5199698,-87.26618309,-66.704797,-43.75720962,-21.80341759,-3.169311875,10.99348791,20.5424653,26.03395134,28.38630104,28.59537762,27.54435931,25.8981437,24.08007423,22.30404812,20.64492238,19.10597578,17.67403121,16.3351422,15.0776258,13.87496047,12.68578326,11.46683276,10.20814443,8.951543612,7.791825459,6.847109551,6.218442903,5.947655147,6.002235231,6.291545131,6.704654733,7.142748207,7.541609659,7.871486049,8.128871647,8.319901094,8.461553793,8.582660469,8.727174916,8.944149624,9.282529082,9.771156543,10.40838246,11.1685148,12.01054475,12.87605252,13.68673942,14.34400148,14.72086568,14.67723889,14.09617138,12.93400711,11.24480598,9.184968661,6.976198786,4.841596202,2.928334991,1.271451912,-0.210442725,-1.671659332,-3.273245317,-5.117913218,-7.220715707,-9.50368643,-11.83203701,-14.06321034,-16.07892143,-17.80576755,-19.22264577,-20.34195918,-21.18287237,-21.76859517,-22.11144919,-22.2082342,-22.04414132,-21.6104556,-20.89951468,-19.91639128,-18.6807066,-17.23470235,-15.62921824,-13.92764802,-12.19965573,-10.51781176,-8.938512516,-7.505071486,-6.238781859,-5.139407838,-4.18544645,-3.352172797,0
2.773113044,2.955816703,3.07117196,3.050208126,2.844173941,2.451008716,1.90858476,1.292713994,0.694404131,0.202704909,-0.127636908,-0.277643876,-0.265436847,-0.131166857,0.073405046,0.309937022,0.553638334,0.788693125,1.002773395,1.187970981,1.333482668,1.438867979,1.523307686,1.620472621,1.758707847,1.94748766,2.156217621,2.318445037,2.364608028,2.270730631,2.089926872,1.957996183,2.052987345,2.515579387,3.375020161,4.512411022,5.684753199,6.605904256,7.058810707,6.971938409,6.441761017,5.686968247,4.954365178,4.41666737,4.119118766,3.981299072,3.848820991,3.565835102,3.041124733,2.271876297,1.3298307,0.323734696,-0.6395842,-1.486474752,-2.176300777,-2.693214032,-3.034372782,-3.196209376,-3.167677506,-2.952192376,-2.578146539,-2.112688132,-1.679405344,-1.465305853,-1.67068332,-2.429121103,-3.673035668,-4.989460468,-5.52506092,-4.075432169,0.604532274,9.275892128,21.64422018,35.95054523,49.0185004,56.87528214,55.84943348,43.78583463,20.98172068,-9.58025612,-42.84299984,-72.95309259,-94.73966147,-104.9534103,-102.8717414,-90.16042866,-70.13368845,-46.76122203,-23.72839842,-3.780926347,11.55695742,21.91538282,27.79730983,30.21398509,30.32330215,29.15265737,27.45368119,25.66694712,23.96626578,22.3609122,20.80161527,19.24768061,17.69671011,16.1849592,14.76186587,13.45884952,12.27446646,11.18318911,10.15251086,9.163905345,8.233693549,7.417728698,6.792521253,6.428111354,6.364854071,6.597069768,7.073731093,7.71517036,8.438375982,9.177201192,9.894560408,10.57991057,11.23522172,11.85837582,12.43015576,12.90809669,13.24350381,13.40281701,13.3823182,13.21990248,12.99069915,12.76704402,12.59660004,12.48571779,12.38583571,12.20735986,11.86596982,11.29137175,10.44394528,9.327615313,7.976951297,6.424357094,4.702158904,2.831812514,0.81632636,-1.350346892,-3.661324989,-6.095447008,-8.609748219,-11.13534925,-13.58330225,-15.85876683,-17.86772368,-19.5337047,-20.80371597,-21.65178186,-22.08376422,-22.13930983,-21.8698799,-21.33514951,-20.60006621,-19.71639346,-18.71459518,-17.61910844,-16.45095068,-15.21860449,-13.93426313,-12.61757473,-11.28927254,-9.96546438,-8.672069289,-7.434570867,-6.274029587,-5.206908866,-4.247580166,0
0.376293924,0.398231292,0.348668371,0.235474501,0.087331525,-0.06480682,-0.191060888,-0.271907702,-0.305617107,-0.32259839,-0.365300295,-0.476998085,-0.69069481,-1.008765879,-1.388964904,-1.758367852,-2.034210486,-2.143132659,-2.051819017,-1.780021355,-1.395460126,-0.991055131,-0.65920756,-0.458346737,-0.403979716,-0.47079396,-0.60700135,-0.752923363,-0.859695731,-0.882525953,-0.778225293,-0.50103551,-0.008774263,0.718917924,1.64905693,2.691277339,3.701615806,4.516333691,5.006022369,5.122910921,4.906948845,4.475535875,3.982620754,3.560181977,3.275261359,3.122687177,3.033563395,2.900141465,2.614733699,2.104148532,1.34588919,0.375779197,-0.715202666,-1.800748368,-2.752010122,-3.466901981,-3.892979676,-4.037185209,-3.957739237,-3.736407473,-3.455076088,-3.186170946,-2.994220555,-2.949765489,-3.141112843,-3.635710234,-4.384031969,-5.096813733,-5.141112004,-3.542651919,0.784277778,8.595997538,19.78331914,32.94066244,45.28486572,53.14238117,52.92110767,42.28420026,21.12976524,-8.025523675,-40.50550858,-70.62881182,-93.15294352,-104.5578431,-103.7699924,-92.1313995,-72.7348972,-49.45827005,-26.00727987,-5.216255631,11.26111567,22.90049763,30.0425589,33.53267712,34.38444642,33.53254353,31.70785947,29.40635028,26.9346004,24.46784761,22.11892827,19.97438353,18.10083912,16.53217985,15.26679042,14.25864096,13.42665791,12.68192183,11.94831972,11.17818963,10.359069,9.522166606,8.728642892,8.059447291,7.597207458,7.411066601,7.52107847,7.892253713,8.441302565,9.056649912,9.6311326,10.10746503,10.49091186,10.83540183,11.21441329,11.68225217,12.23931081,12.82679935,13.35227112,13.728397,13.90228187,13.87403249,13.69169586,13.42065889,13.10390327,12.74453999,12.30015364,11.69849468,10.86431892,9.752733656,8.361287694,6.731521865,4.929927527,3.026513246,1.072227788,-0.912018545,-2.934960028,-5.020547105,-7.185638978,-9.422809169,-11.6858471,-13.8913577,-15.92783101,-17.6736252,-19.01843919,-19.88618477,-20.24449489,-20.10985361,-19.55383949,-18.68158785,-17.6073332,-16.43531184,-15.2402996,-14.04568478,-12.83977887,-11.59755944,-10.29615753,-8.934364801,-7.545565834,-6.18962506,-4.933164005,-3.837141372,-2.936693044,-2.234525924,-1.696875659,0
-0.958341707,-1.025123076,-1.117769655,-1.244384657,-1.370736784,-1.424688649,-1.317560473,-0.992591175,-0.450553853,0.233441917,0.928911448,1.488430056,1.799289281,1.811628056,1.550938557,1.100284885,0.567678078,0.050542858,-0.385910577,-0.714108497,-0.938135478,-1.079084651,-1.159500007,-1.193419027,-1.189183278,-1.142162145,-1.036617887,-0.853685841,-0.574784331,-0.174891941,0.36380968,1.046821623,1.869433975,2.809867335,3.809113932,4.774206392,5.590608442,6.139033097,6.323552372,6.111249973,5.544250394,4.721025328,3.764660905,2.789659533,1.873975714,1.050446113,0.321985565,-0.320802146,-0.893610932,-1.426153375,-1.962388139,-2.551152225,-3.225482191,-3.979793541,-4.750612251,-5.427201563,-5.894071441,-6.079627537,-5.979300847,-5.659126574,-5.233655767,-4.826569181,-4.543887323,-4.472959944,-4.683142011,-5.196196918,-5.904871679,-6.459951033,-6.18966504,-4.121437048,0.785333659,9.185921593,20.83015387,34.18143081,46.38642281,53.78460069,52.89913673,41.57045896,19.86080174,-9.633315134,-42.26523548,-72.48470482,-95.21922543,-107.0708413,-106.9785438,-96.17893363,-77.581733,-54.87415082,-31.64086127,-10.70072272,6.210417918,18.43394959,26.17704932,30.20462075,31.50875303,31.05039375,29.60661475,27.70863445,25.66198389,23.62047413,21.6580771,19.81596563,18.13106626,16.63048445,15.3168657,14.16936766,13.15257756,12.2303998,11.38371983,10.6188186,9.955638455,9.421050076,9.033602219,8.797901389,8.699949791,8.719446165,8.827387438,8.992042834,9.183607246,9.386033709,9.588473206,9.795563074,10.02810885,10.30946289,10.64776701,11.0421816,11.47381787,11.90607258,12.30169086,12.63706336,12.89762477,13.07565006,13.16682442,13.15887635,13.02834155,12.74557848,12.28522018,11.63171696,10.78559007,9.759230169,8.570079083,7.23488329,5.768035781,4.179860873,2.478345157,0.67713888,-1.207103376,-3.160037963,-5.171795555,-7.229427664,-9.319238937,-11.41457954,-13.46868561,-15.41416597,-17.17338553,-18.66888403,-19.84626641,-20.68098288,-21.17638973,-21.36550005,-21.29325819,-20.99706463,-20.50139147,-19.82090417,-18.95199768,-17.89114772,-16.64715451,-15.24506806,-13.72801409,-12.16022722,-10.61156906,-9.139554781,-7.785416087,-6.563724594,-5.46002887,0
0.007184304,0.073436736,0.155600047,0.24444443,0.334268576,0.412608204,0.469256357,0.504215779,0.532803014,0.572247634,0.645818719,0.763752856,0.918417658,1.085057807,1.232094103,1.327343983,1.362625553,1.351659052,1.325068284,1.319703287,1.366226298,1.464101116,1.585127193,1.682878945,1.705525065,1.609971293,1.386726372,1.066495442,0.717697065,0.439518704,0.350219363,0.559471276,1.135348232,2.076406525,3.301023747,4.646673878,5.903252048,6.874259055,7.436566356,7.56667423,7.351705644,6.948637735,6.516563876,6.15305884,5.871093218,5.596151985,5.212163536,4.615147357,3.761697175,2.680910008,1.470476999,0.259607626,-0.824865439,-1.691912419,-2.29521308,-2.638548854,-2.759482359,-2.711754072,-2.547211088,-2.308584583,-2.027828696,-1.742460676,-1.512143267,-1.424655674,-1.576628807,-1.994919538,-2.511946636,-2.656639958,-1.607513841,1.697363011,8.217829031,18.30578886,31.22144692,44.85493262,55.90327643,60.59284087,55.76502076,39.97759188,14.2369539,-17.98108294,-51.50209985,-80.72825281,-101.0187232,-109.719439,-106.5723159,-93.42517999,-73.49047233,-50.42183007,-27.53017525,-7.260614506,8.977772457,20.73056558,28.25499342,32.25035883,33.58425052,33.10363617,31.52146966,29.37397848,27.01689994,24.67103456,22.4612216,20.44378428,18.63049774,17.0088221,15.55219134,14.22700503,13.0145805,11.91773598,10.95663547,10.15081959,9.519473802,9.059121938,8.73909587,8.513776779,8.34897006,8.221364309,8.135740203,8.123302577,8.222634195,8.45564736,8.826090302,9.310284471,9.860001679,10.42089024,10.95115094,11.42586904,11.84223554,12.22369527,12.60273025,13.00010278,13.41520909,13.81804479,14.13796611,14.28438547,14.17355396,13.74509613,12.97575307,11.89753919,10.57659508,9.087619119,7.496632393,5.843483349,4.119674877,2.284416902,0.287423208,-1.919082145,-4.35779887,-7.005244287,-9.795953756,-12.63992603,-15.42383404,-18.0306799,-20.35592075,-22.31470707,-23.83869223,-24.88993742,-25.46029238,-25.56785591,-25.25579668,-24.58983648,-23.64609505,-22.50233867,-21.2306255,-19.88779673,-18.51210162,-17.11921409,-15.70687618,-14.26365292,-12.77957364,-11.25520583,-9.71355624,-8.193985141,-6.748205295,-5.428742111,-4.272630749,0
-0.589793782,-0.551265083,-0.45674451,-0.331088226,-0.201478564,-0.089871104,-0.010077781,0.033083777,0.050899234,0.058984294,0.077024564,0.121113924,0.202125564,0.315031988,0.442807443,0.55811241,0.634181103,0.650793229,0.600462713,0.496902875,0.364406529,0.227804971,0.100745106,-0.017359221,-0.155223938,-0.34912374,-0.63024855,-1.007535986,-1.453624647,-1.891342548,-2.212991407,-2.301780724,-2.061301214,-1.450908094,-0.507585147,0.658206643,1.886795359,3.012492579,3.907905391,4.511731869,4.831248686,4.923734042,4.856485493,4.675057512,4.390918349,3.991994154,3.456470431,2.774164384,1.965076307,1.075722029,0.163148216,-0.710678996,-1.483601823,-2.109690051,-2.558605822,-2.811859923,-2.868912298,-2.749132701,-2.478983673,-2.095702068,-1.656855851,-1.250646228,-1.00791175,-1.108899466,-1.735701998,-2.967105963,-4.623267258,-6.118132098,-6.386099124,-4.019641339,2.332877034,13.35755018,28.45866655,45.37021972,60.31151951,68.78433763,66.85136141,52.46996515,26.43853932,-7.507286641,-43.54290624,-75.27325357,-97.37614415,-106.8752864,-103.6241687,-89.93500778,-69.61520696,-46.82523979,-25.1071483,-6.817798752,6.968873632,16.23676016,21.64498227,24.14608924,24.68439811,24.04446839,22.79193728,21.28774212,19.73613091,18.24714006,16.86446701,15.59410864,14.42683333,13.34396996,12.32214604,11.3518139,10.44464084,9.622055826,8.91500025,8.354078751,7.959615811,7.728779181,7.647199445,7.692312637,7.844184719,8.086608241,8.417880026,8.840660861,9.357074712,9.955032376,10.60318175,11.25094224,11.84447513,12.33329325,12.69328305,12.94277249,13.13660156,13.34365176,13.63475076,14.05192944,14.58593317,15.17553925,15.72292158,16.11104816,16.23089559,16.00722287,15.41287941,14.46960248,13.23417558,11.78055516,10.17085691,8.431616876,6.549653896,4.486678863,2.202444542,-0.310208982,-2.998719981,-5.755057046,-8.442385019,-10.93139252,-13.13534642,-15.03134327,-16.64994865,-18.04291973,-19.24831253,-20.26907883,-21.06360294,-21.5581942,-21.67410873,-21.35193972,-20.56604381,-19.33917334,-17.7422756,-15.88504814,-13.90796913,-11.96581204,-10.19468035,-8.68876324,-7.484521027,-6.548858922,-5.791589152,-5.10294461,-4.388598208,-3.600372348,-2.755795275,0
-1.982038207,-1.72537272,-1.442816564,-1.224433297,-1.138521714,-1.204045491,-1.386675849,-1.617520966,-1.825050213,-1.953939019,-1.979399953,-1.899953859,-1.720274088,-1.444769759,-1.088799938,-0.684921384,-0.289771556,0.018194546,0.16322944,0.10790766,-0.131280378,-0.485279665,-0.852933442,-1.14252744,-1.307586724,-1.359403142,-1.356619976,-1.369468129,-1.431716038,-1.511732295,-1.507399521,-1.274177024,-0.690400813,0.280975387,1.56005939,2.95507739,4.216832434,5.130451366,5.584931844,5.598452832,5.299251691,4.862515858,4.429995516,4.064646398,3.751888541,3.424997046,3.002756953,2.433793277,1.709806878,0.854738966,-0.087635198,-1.052874787,-1.97507774,-2.795039735,-3.465656207,-3.95326341,-4.251696904,-4.367718051,-4.307079525,-4.070024331,-3.66855354,-3.150872311,-2.634360683,-2.304302535,-2.345978157,-2.805730293,-3.409120843,-3.425472492,-1.695136262,3.0899433,11.87163375,24.59938415,39.74449962,54.23738308,64.00872255,65.05173747,54.70496635,32.71697845,1.652572764,-33.58646168,-66.96877515,-92.86381788,-107.4046102,-109.2560642,-99.59754702,-81.4694364,-58.78345936,-35.33808791,-14.10524684,3.093032734,15.57766587,23.56849682,27.84155097,29.40083404,29.22165499,28.08064296,26.49544712,24.74372881,22.93132715,21.08138753,19.21393805,17.38554596,15.69268136,14.23874036,13.09731105,12.27963666,11.7299166,11.34559085,11.02032182,10.66906199,10.25874744,9.808313528,9.366935551,8.987580012,8.721786505,8.600813188,8.635893167,8.82971829,9.181312946,9.67353566,10.27381192,10.93315089,11.59381177,12.19576175,12.70141559,13.10205267,13.42473771,13.7107876,14.00411547,14.32196988,14.64952896,14.92748518,15.0732673,15.00029696,14.64747623,13.98950024,13.04861948,11.87988118,10.54306763,9.075897981,7.481110537,5.72819619,3.772491817,1.589989359,-0.801399629,-3.335026534,-5.914830328,-8.444690914,-10.85607712,-13.11942941,-15.24105808,-17.23533674,-19.09331441,-20.77362128,-22.20261069,-23.2855593,-23.93836993,-24.11708706,-23.82087237,-23.09430562,-22.02152499,-20.70062308,-19.22067419,-17.6581276,-16.06568895,-14.47082834,-12.88881972,-11.33944367,-9.848269466,-8.453915426,-7.202915721,-6.137327241,-5.273295525,-4.59580031,-4.059737223,0
0.703371678,0.60871065,0.530105307,0.475786766,0.446584675,0.440448505,0.453038992,0.479853453,0.507921548,0.52334455,0.508859015,0.446626876,0.322208798,0.139006509,-0.087311841,-0.329567465,-0.554564868,-0.730971373,-0.841488623,-0.876978714,-0.835211913,-0.718188021,-0.533107706,-0.29496972,-0.035237514,0.201907704,0.364355688,0.413912293,0.354559153,0.248268351,0.202173743,0.348013327,0.794020578,1.566469657,2.584530654,3.679927935,4.637807923,5.265214212,5.464866532,5.265143583,4.798716348,4.252190905,3.797749681,3.529937568,3.438130728,3.424931417,3.347514906,3.070251604,2.513677626,1.679723667,0.643903241,-0.465763208,-1.502611093,-2.343707237,-2.912762196,-3.183279484,-3.176420418,-2.94958188,-2.570930022,-2.115609665,-1.672299748,-1.350397167,-1.281317271,-1.613802334,-2.44685046,-3.718760167,-5.07186279,-5.758444259,-4.658211332,-0.534477805,7.498036357,19.39975072,33.74973792,47.64728476,57.20207718,58.53570779,49.01802185,28.31294816,-1.173704205,-34.72522278,-66.47209006,-90.89880049,-104.1998869,-105.0764895,-94.73789079,-76.25286654,-53.54414243,-30.38527205,-9.66798993,6.916018737,18.82698307,26.39288205,30.43435159,31.92452619,31.75302298,30.61190572,28.96820469,27.09635664,25.13792184,23.15235437,21.15578231,19.15382682,17.16743962,15.23925665,13.44216588,11.86483802,10.58673316,9.650661873,9.046951659,8.708089247,8.537682351,8.438050644,8.335005371,8.198034717,8.042861077,7.90230116,7.816082654,7.822273968,7.944907371,8.189999693,8.562184017,9.056428334,9.65270221,10.31876544,11.01724946,11.70232184,12.33434188,12.88268402,13.32632931,13.64332668,13.80946589,13.78924811,13.55031419,13.06643628,12.33409332,11.37325017,10.22955327,8.95104615,7.585106931,6.157161596,4.671801631,3.112171232,1.453559841,-0.336507671,-2.27479058,-4.359941454,-6.564199414,-8.831054519,-11.07359902,-13.1964828,-15.10996455,-16.75110954,-18.09059131,-19.13427308,-19.90580507,-20.42310758,-20.67550338,-20.63455332,-20.26660871,-19.55608438,-18.53826676,-17.31269379,-16.01162178,-14.76544946,-13.6686827,-12.7411099,-11.92525265,-11.12241348,-10.23362601,-9.191101251,-7.985484095,-6.664982521,-5.30900837,-4.002154048,-2.816952761,0
2.138151862,2.208429598,2.092870386,1.839250527,1.524413938,1.219247453,0.967153376,0.772306872,0.602599534,0.415969595,0.179424639,-0.113284766,-0.438619751,-0.737458829,-0.944192193,-1.000043447,-0.875595357,-0.572699989,-0.135753957,0.373318855,0.883338929,1.333745828,1.677238665,1.886842966,1.944645541,1.846748303,1.605830829,1.257969814,0.869999263,0.537765387,0.366962324,0.447296816,0.822854414,1.468700543,2.293030882,3.15668696,3.902512794,4.405671802,4.606444616,4.51777159,4.215535498,3.817491008,3.431672646,3.124142455,2.907115832,2.744998963,2.569115451,2.311170376,1.926626651,1.399362222,0.73597038,-0.037441518,-0.880997285,-1.750670244,-2.596106413,-3.358773759,-3.984830947,-4.439652829,-4.707278207,-4.794331563,-4.738184584,-4.602668487,-4.473860739,-4.471047977,-4.727322937,-5.318202047,-6.154300487,-6.861647152,-6.68666372,-4.552844214,0.651580696,9.592903991,21.94995208,36.01253971,48.69745405,56.14593419,54.77918192,42.49665241,19.60366032,-10.93297893,-44.09467735,-74.07638944,-95.76617291,-105.9703994,-104.0194873,-91.59960877,-71.98734632,-49.05628644,-26.35977537,-6.505279164,9.072514975,19.99903257,26.68363276,29.97565889,30.85335013,30.20913258,28.74551896,26.93591537,25.06005987,23.25896847,21.58954473,20.0535945,18.63210837,17.28805036,15.97508508,14.64803393,13.29574256,11.93926654,10.63683813,9.472215214,8.535259054,7.883116159,7.532020161,7.456780469,7.598820946,7.880961747,8.229486784,8.591991047,8.936399362,9.25523611,9.559631715,9.871092327,10.19837345,10.5356229,10.85445097,11.11632485,11.28768423,11.36443509,11.37814758,11.39464744,11.48278635,11.68204293,11.97654101,12.28601949,12.47857231,12.41598828,11.9994197,11.20156308,10.07617239,8.736040963,7.30628075,5.877507541,4.470299408,3.035310478,1.487605822,-0.252068757,-2.221226932,-4.388563772,-6.66573185,-8.941983125,-11.11309939,-13.09925913,-14.85359359,-16.34893518,-17.56603058,-18.48052542,-19.06633415,-19.30657503,-19.20601894,-18.78424897,-18.08263746,-17.15285771,-16.04364045,-14.79435381,-13.44618172,-12.04204196,-10.63274068,-9.277609121,-8.041835374,-6.979231085,-6.11596353,-5.443244681,-4.920218336,-4.474778765,-4.027249798,0
0.998484631,0.797631267,0.72538424,0.814906639,1.04666469,1.347166912,1.60456322,1.696336022,1.532061239,1.086654569,0.41880097,-0.350617105,-1.072867248,-1.614917313,-1.89142884,-1.891818421,-1.663238861,-1.288137401,-0.853991273,-0.436418652,-0.075201087,0.216883136,0.446593788,0.624231365,0.759065318,0.844160427,0.866306132,0.812803558,0.693359976,0.548989781,0.461146052,0.53625612,0.87809423,1.538572891,2.488510925,3.610730402,4.716132599,5.600901072,6.115843685,6.209636348,5.933019654,5.423356647,4.838317061,4.296633019,3.844517748,3.456363963,3.050627193,2.537105121,1.848779892,0.962899818,-0.094097756,-1.254431966,-2.426852446,-3.508475174,-4.408545879,-5.068542534,-5.46651097,-5.617543542,-5.564533663,-5.357342809,-5.041657171,-4.670799358,-4.323874428,-4.129275292,-4.24836056,-4.798181852,-5.709220733,-6.568723939,-6.52362354,-4.377415778,1.069669693,10.47311381,23.35579283,37.73477638,50.2438651,56.84396217,53.97364907,39.79648122,15.07090796,-16.74747133,-50.26707896,-79.52648964,-99.53585115,-107.4615537,-103.1049946,-88.60108101,-67.56505891,-44.01326891,-21.43171051,-2.205947826,12.5226859,22.6647929,28.80868217,31.83433249,32.61606423,31.86504361,30.10598561,27.7218076,25.01289088,22.23693025,19.60816083,17.26977375,15.28051015,13.62452852,12.23954517,11.06013611,10.05231759,9.219933576,8.584083288,8.159598842,7.939964095,7.88490109,7.927682467,7.999040804,8.046187616,8.035938062,7.973294711,7.897798802,7.872378914,7.965554973,8.236527567,8.701424364,9.328980779,10.04174463,10.73997519,11.33289178,11.77387074,12.06443726,12.24488442,12.36397268,12.44870779,12.48764745,12.43759399,12.24824409,11.88156834,11.32482945,10.58687023,9.690172391,8.651507279,7.486796323,6.208942257,4.833037449,3.369705056,1.82268253,0.180326069,-1.570995225,-3.434004872,-5.380165287,-7.337286396,-9.207620604,-10.90520602,-12.38614768,-13.66617748,-14.81480024,-15.90598386,-16.96865828,-17.96333028,-18.78942868,-19.32498212,-19.48725266,-19.26807111,-18.72724664,-17.95992272,-17.04824617,-16.02514844,-14.87411786,-13.56665508,-12.09870472,-10.51500774,-8.904882022,-7.374481601,-6.002743031,-4.816929849,-3.792896213,-2.878985644,0
1.211324574,0.259188048,-0.474198907,-0.884870082,-0.950623444,-0.729848147,-0.331355314,0.120881619,0.529856315,0.84177174,1.053053983,1.19196925,1.303061603,1.414084553,1.52096131,1.579186958,1.525744674,1.297660823,0.862413683,0.237210112,-0.506191847,-1.266591598,-1.936221819,-2.428419763,-2.699463316,-2.752408158,-2.619256084,-2.345853311,-1.97128574,-1.508787247,-0.938821121,-0.219467189,0.693378018,1.824416941,3.15093344,4.588866792,5.995712851,7.203913723,8.045976068,8.396829801,8.195382715,7.460997596,6.274871177,4.771959381,3.11304449,1.464376906,-0.037267329,-1.296247545,-2.2723739,-2.983283377,-3.487659471,-3.848372752,-4.112631007,-4.297929462,-4.381783015,-4.32281948,-4.094888388,-3.698141381,-3.165043654,-2.565467048,-1.9893723,-1.528889857,-1.289160977,-1.391124644,-1.95274716,-3.031127308,-4.504558865,-5.919726537,-6.397295686,-4.697012165,0.460991599,9.836344307,23.04561084,38.13571774,51.6396789,59.28111678,57.1886819,43.23166793,17.99557713,-15.02914882,-50.21014008,-81.22754469,-102.7169138,-111.5594143,-107.4379609,-92.53815589,-70.63551035,-45.96264365,-22.22506693,-1.983436071,13.50464632,24.0969488,30.40368608,33.40198537,34.11034024,33.39622171,31.89398081,30.01035499,27.97045822,25.89262808,23.84429055,21.88479899,20.07229994,18.4610333,17.07451975,15.88805748,14.82201724,13.76863905,12.62894922,11.36333089,10.02516188,8.755283548,7.735285248,7.121477825,6.984363917,7.277122583,7.85581395,8.536759321,9.165910147,9.66602348,10.04545049,10.37332852,10.73450445,11.18509237,11.7279382,12.32409324,12.91373,13.43542943,13.8481915,14.13875579,14.3084469,14.36050551,14.30214752,14.13037199,13.83591574,13.40878731,12.84290694,12.12885773,11.26094461,10.22725488,9.009915905,7.583707791,5.919623272,3.993602566,1.800174546,-0.647341202,-3.310334645,-6.122509166,-9.004492333,-11.86962268,-14.62044394,-17.15664386,-19.38165658,-21.20118196,-22.53791444,-23.35011007,-23.63481387,-23.4276572,-22.79806091,-21.82935879,-20.60046866,-19.18149089,-17.63311691,-16.01081208,-14.37465601,-12.78587572,-11.29745923,-9.941275835,-8.716635866,-7.587078276,-6.500221329,-5.406235152,-4.280036258,-3.135310473,-2.021804801,0
1.220623517,1.027075006,0.741760329,0.419766466,0.112604115,-0.151094313,-0.378766417,-0.608853436,-0.874007304,-1.178544507,-1.489071959,-1.740020039,-1.85947081,-1.807317851,-1.589792976,-1.265297756,-0.927100436,-0.669136438,-0.553739695,-0.599766312,-0.774131232,-1.00632834,-1.213771918,-1.326560628,-1.306878679,-1.16384521,-0.945910941,-0.723000714,-0.556689339,-0.462764405,-0.387604601,-0.215884373,0.196805797,0.966955293,2.117679048,3.541166945,5.014910931,6.2643508,7.051794065,7.257035069,6.921207158,6.217813269,5.377689916,4.596181488,3.973974339,3.491384964,3.043347081,2.499960065,1.773997446,0.84940779,-0.21238743,-1.295924786,-2.267774702,-3.016832427,-3.475207657,-3.627850256,-3.511673016,-3.201844462,-2.79043817,-2.365650128,-2.000662968,-1.752796231,-1.677460629,-1.838408219,-2.295322049,-3.034301025,-3.848373106,-4.203858058,-3.187955764,0.363651817,7.490824984,18.55421964,32.67124299,47.43104742,59.13586387,63.63995982,57.57434196,39.58525381,11.08130464,-23.84823144,-59.37652592,-89.41573846,-109.1575136,-116.1418352,-110.5788578,-94.90885347,-72.88246818,-48.50479935,-25.18655323,-5.258068286,10.12159189,20.79113988,27.27181035,30.43203489,31.21962425,30.49291752,28.92055503,26.95964785,24.89359373,22.87673458,20.97384773,19.21124547,17.59886203,16.13400832,14.80527955,13.60231055,12.50445084,11.49070181,10.54488647,9.663028033,8.85142752,8.137299374,7.556675519,7.145837299,6.927380911,6.906542428,7.064352844,7.364816534,7.772207105,8.265099236,8.838519575,9.503043995,10.27921579,11.1719874,12.15559397,13.16734017,14.11558525,14.89443607,15.41213038,15.61595751,15.50988795,15.14709787,14.60460233,13.96031612,13.26587177,12.52863238,11.71550936,10.7830641,9.693200191,8.42508901,6.980353455,5.377895952,3.627441134,1.720020322,-0.366072545,-2.653953645,-5.154856499,-7.845858551,-10.66052123,-13.49263053,-16.2148921,-18.69609106,-20.82017779,-22.50242168,-23.70044118,-24.40643659,-24.63994589,-24.44360288,-23.87175397,-22.98374151,-21.84125866,-20.50725519,-19.03689194,-17.4777598,-15.86380189,-14.22305619,-12.58129737,-10.96990581,-9.424459892,-7.989699227,-6.699397928,-5.568501633,-4.58971338,-3.740337763,-2.982693789,0
2.309360805,2.319258417,2.198867518,1.977227715,1.697427629,1.402490399,1.129903999,0.912884323,0.77661238,0.731832711,0.774180561,0.886832352,1.041212956,1.207260121,1.358877591,1.476402518,1.548687672,1.57357735,1.551864773,1.487018089,1.393118427,1.285468972,1.18182786,1.105059268,1.083758826,1.140898468,1.308372093,1.615383192,2.078638761,2.692473611,3.42727752,4.213710332,4.96157436,5.574158937,5.968368811,6.088469327,5.922469556,5.492200757,4.85132225,4.067585939,3.216552754,2.368307855,1.583745473,0.901846289,0.341793156,-0.110645006,-0.496997987,-0.876649246,-1.309268047,-1.835206157,-2.448188177,-3.097874033,-3.69851909,-4.152292521,-4.384959905,-4.375323585,-4.14804966,-3.770565122,-3.326415798,-2.891195125,-2.521267403,-2.282766617,-2.260028936,-2.569160297,-3.314720725,-4.49072147,-5.815179675,-6.597263152,-5.700991673,-1.742986888,6.457131008,19.2434982,35.53582119,52.5720378,66.24678961,72.07145059,66.5224104,48.33144363,19.20892999,-16.34390572,-52.12192228,-81.84014075,-100.7326752,-106.6161728,-100.121871,-84.12425516,-62.6780391,-39.89316067,-19.05599776,-2.183510896,9.983993555,17.69672993,21.79665231,23.33275094,23.28089022,22.39467286,21.16143432,19.84267194,18.53893638,17.26105311,15.99119242,14.72474706,13.47445156,12.27375641,11.16675094,10.19405313,9.379386616,8.729255098,8.234234785,7.876498928,7.631348312,7.473269348,7.379483926,7.328130049,7.295116381,7.263502886,7.228166806,7.195211908,7.18306701,7.224984358,7.356933132,7.605869798,7.985906124,8.495107932,9.106504583,9.778191986,10.46025743,11.10218659,11.65906881,12.1047068,12.42459975,12.61637578,12.68122847,12.6151923,12.40179156,12.01559902,11.42669728,10.61076363,9.563701563,8.306006013,6.887664202,5.375099718,3.840038458,2.337762439,0.895246771,-0.507569022,-1.923808338,-3.428549683,-5.090832517,-6.951803512,-8.992747367,-11.14098523,-13.27971089,-15.27485365,-16.99752556,-18.35960731,-19.31869144,-19.87265471,-20.04905407,-19.89477199,-19.45342061,-18.76208922,-17.85604098,-16.76788208,-15.53319244,-14.19961494,-12.82500408,-11.47134087,-10.19949838,-9.055219909,-8.061458191,-7.21343235,-6.482088653,-5.82505002,-5.202264172,0
0.505912115,0.751190309,0.935816445,1.053943865,1.13912037,1.251670825,1.456726219,1.779507735,2.182042532,2.569300402,2.813743096,2.795445007,2.455850766,1.825473962,1.026753212,0.245826956,-0.321991786,-0.531227556,-0.324855142,0.245628954,1.038718213,1.874062377,2.582687605,3.051085455,3.253796242,3.250292068,3.150049259,3.078580621,3.134209213,3.354543477,3.709135874,4.119106987,4.488274563,4.743940736,4.863035747,4.878075698,4.861241419,4.881927366,4.967714576,5.090000167,5.169562421,5.103745176,4.813023899,4.277032508,3.536321379,2.679368247,1.802756561,0.979004645,0.232671765,-0.447618727,-1.095795372,-1.729789311,-2.337209576,-2.869673518,-3.266646321,-3.472382673,-3.463057937,-3.255067522,-2.900815038,-2.465906146,-2.019515044,-1.634296638,-1.394573266,-1.409751676,-1.806674822,-2.658561779,-3.853992775,-4.954467936,-5.0999711,-3.084412347,2.322189843,11.8298859,25.04543648,40.06708436,53.55341403,61.38519475,59.82017899,46.74675384,22.6257487,-9.309405058,-43.73311499,-74.59215464,-96.64997146,-106.7433363,-104.3650798,-91.44359635,-71.50743058,-48.62034219,-26.4169235,-7.464038266,6.949154039,16.66227831,22.30357359,24.89825366,25.52329983,25.07571659,24.17098819,23.1410707,22.09956776,21.02966178,19.8677914,18.56472532,17.11350902,15.5469154,13.92921459,12.34276042,10.86872798,9.571829681,8.493974773,7.65236303,7.037916176,6.620381416,6.362251749,6.235229061,6.22036275,6.309755021,6.504802859,6.804585124,7.188130841,7.616581409,8.038197789,8.398922787,8.661920935,8.822400791,8.904396409,8.953275357,9.021490463,9.140799102,9.314825995,9.531486142,9.773392119,10.02346833,10.28358965,10.56650544,10.86710455,11.14630171,11.33646428,11.34610562,11.08424342,10.49626835,9.578125259,8.366079276,6.913730798,5.269624121,3.459839149,1.487623749,-0.648036193,-2.921803622,-5.27194133,-7.609743739,-9.828970487,-11.8356209,-13.57238603,-15.02668419,-16.21036795,-17.15214626,-17.86930497,-18.36430501,-18.61560306,-18.60086019,-18.30391333,-17.73488131,-16.92113035,-15.91390373,-14.76746782,-13.53418956,-12.25723568,-10.97670866,-9.725273108,-8.536850725,-7.441174835,-6.449499947,-5.552102841,-4.724193328,-3.929938976,0
0.713423058,0.484661986,0.374183201,0.407724576,0.570925062,0.824466117,1.115743729,1.398409406,1.641088639,1.834759956,1.98125601,2.081835229,2.129131952,2.107989991,2.002605808,1.813852792,1.573060537,1.339157309,1.183372457,1.163418699,1.296835162,1.551174562,1.851821725,2.108500826,2.24895427,2.252236211,2.15211442,2.03027717,1.989317642,2.11702029,2.451356861,2.97443931,3.615476012,4.274059528,4.852728165,5.286079368,5.546534093,5.641141146,5.591398036,5.414586709,5.10800875,4.658079448,4.048008147,3.273708375,2.350794959,1.322102895,0.243713529,-0.820389188,-1.804358044,-2.64554837,-3.293608719,-3.713567526,-3.888467999,-3.828444953,-3.57040428,-3.174570391,-2.710477544,-2.251551484,-1.855313923,-1.557886762,-1.369321516,-1.294232187,-1.350922732,-1.598420284,-2.11900205,-2.957935505,-3.993704556,-4.792420257,-4.515231229,-2.006338716,3.881939629,13.75282592,27.0838093,41.85274872,54.64117248,61.34618045,58.34847686,43.7689339,18.35425989,-14.39196419,-48.97641918,-79.32620603,-100.3446694,-109.1172227,-105.4160059,-91.39780331,-70.71044728,-47.41132169,-25.02561591,-5.963888303,8.625015001,18.65135784,24.72911952,27.78935623,28.77570422,28.4656538,27.41887696,25.98298413,24.35374431,22.63169624,20.86966425,19.0941914,17.33023878,15.6036029,13.94781902,12.40029904,11.00316463,9.797419135,8.816661719,8.075333963,7.573293525,7.294356671,7.200276818,7.23933317,7.356800486,7.497305913,7.611616404,7.67356306,7.681533924,7.662887223,7.663286089,7.737444689,7.928554128,8.257218076,8.708961582,9.247701168,9.827247961,10.41055334,10.97858598,11.53304369,12.08113609,12.61430303,13.09039017,13.43217922,13.53724639,13.30355167,12.67155513,11.64986278,10.31567992,8.802522854,7.263182144,5.81368125,4.497540022,3.284676389,2.079935249,0.76007354,-0.776607399,-2.573484158,-4.614854678,-6.823645431,-9.086085512,-11.28215655,-13.31260868,-15.10137231,-16.61022214,-17.82596934,-18.74672949,-19.37205507,-19.70192413,-19.72651167,-19.44137882,-18.86026359,-18.01799297,-16.97030661,-15.79205418,-14.55812839,-13.32574126,-12.12732834,-10.96996217,-9.841243335,-8.722266355,-7.604282864,-6.494781132,-5.418956772,-4.411271645,0
-1.278797955,-1.482018366,-1.556319071,-1.519401856,-1.41189057,-1.281858286,-1.160399043,-1.056060813,-0.942041992,-0.779476863,-0.530683354,-0.18979744,0.219758234,0.640945894,1.007030499,1.261833942,1.388210575,1.405290877,1.366147592,1.339076566,1.380427045,1.513222084,1.721292404,1.950781659,2.119506771,2.145895908,1.971850415,1.58813566,1.046164409,0.465216411,0.009445462,-0.144510278,0.138408652,0.910809383,2.111049707,3.567096349,5.0289203,6.24177143,7.011331646,7.25557961,7.019499924,6.451943284,5.737899817,5.038077503,4.440901086,3.949408076,3.499216127,3.003742341,2.390752708,1.625865135,0.719487586,-0.281795919,-1.311634948,-2.300946899,-3.181096174,-3.897811471,-4.41652875,-4.728488436,-4.841441282,-4.782998153,-4.590627661,-4.320946666,-4.056815083,-3.923062784,-4.063858428,-4.573190249,-5.358376902,-5.996303085,-5.642597402,-3.115814647,2.778417044,12.70549188,26.22254823,41.38413279,54.8245657,62.42690746,60.47186503,46.87939498,22.14355254,-10.48774489,-45.68883418,-77.4020105,-100.3561417,-111.3166968,-109.6428484,-97.09255008,-77.03588624,-53.43919203,-29.93084541,-9.197696233,7.244824052,18.96124292,26.31320102,30.12055751,31.35990341,30.94559485,29.60325557,27.83701621,25.95091889,24.09975831,22.34047666,20.68289176,19.11174261,17.60027196,16.12315377,14.67052561,13.24845531,11.88787963,10.64567676,9.588122708,8.76894988,8.217353764,7.927067642,7.85519564,7.937343038,8.106762458,8.310436941,8.515127484,8.704450971,8.873263198,9.027664861,9.180190036,9.357393049,9.604651546,9.97832308,10.52644429,11.27577756,12.21277774,13.28194827,14.39700212,15.45823477,16.37025845,17.05850553,17.46563248,17.55000877,17.28743875,16.66775625,15.69641083,14.40829263,12.869497,11.16009596,9.359829086,7.528308409,5.68228742,3.788302048,1.786160544,-0.385242397,-2.762641185,-5.334136014,-8.03818183,-10.78291693,-13.46996655,-16.00784344,-18.32294746,-20.34635072,-22.00586885,-23.22115148,-23.91295399,-24.02556943,-23.55556419,-22.56053409,-21.15073604,-19.47528811,-17.68503199,-15.90576574,-14.22164107,-12.6817041,-11.29721507,-10.05357462,-8.920838151,-7.869112892,-6.870455099,-5.910670399,-4.997760531,-4.152120484,0
2.77223439,2.511977598,2.331988957,2.24308489,2.228032361,2.251218349,2.266823281,2.238606381,2.146911824,1.989762033,1.773594689,1.516702649,1.231212291,0.93082931,0.630945588,0.357716672,0.13641441,-0.000707885,-0.032413531,0.052404879,0.240023219,0.502002063,0.794076424,1.072769826,1.291723852,1.417044189,1.424165889,1.308097693,1.084440276,0.807969847,0.569152773,0.491187773,0.693644359,1.261559988,2.196764053,3.402751111,4.69126854,5.844311976,6.670422768,7.069968344,7.061766402,6.766906,6.337097562,5.893954336,5.479337637,5.036079888,4.444740142,3.593200521,2.430401895,0.995609855,-0.574691397,-2.097110585,-3.39660943,-4.356498262,-4.938156653,-5.186567561,-5.185296703,-5.026535838,-4.772420247,-4.454484183,-4.081234154,-3.683113014,-3.336119685,-3.181774769,-3.379543316,-4.011154391,-4.933477709,-5.644181998,-5.218606961,-2.446523654,3.805399036,14.05078965,27.62937344,42.37871714,54.80180417,60.80208517,56.84660935,41.18653854,14.6944602,-19.05948528,-54.57102255,-85.77938179,-107.5787804,-116.9835167,-113.6174211,-99.45971368,-78.02883754,-53.36306367,-29.11905501,-7.972525055,8.608618843,20.26015822,27.43053601,31.0296739,32.10337552,31.58802685,30.19182234,28.37117981,26.38001492,24.34069208,22.32158881,20.3756171,18.55495468,16.89941642,15.43139791,14.14700698,13.02325983,12.03060207,11.14864957,10.36971497,9.699995572,9.150892596,8.728474145,8.428213238,8.230613759,8.105191729,8.025029174,7.975818945,7.958069971,7.996924507,8.133580679,8.406889913,8.841119128,9.438201044,10.1664391,10.97238362,11.798773,12.60273721,13.36655987,14.10039718,14.82761513,15.56150938,16.2795832,16.91027297,17.33923293,17.43032091,17.06191331,16.16643259,14.75576428,12.91721027,10.78400554,8.495007486,6.145564073,3.75540028,1.270013122,-1.400076193,-4.338673729,-7.572719938,-11.04451888,-14.60699495,-18.06341706,-21.21144268,-23.89091819,-26.00909521,-27.56052361,-28.60392403,-29.22566558,-29.50925095,-29.51321952,-29.25258511,-28.70698472,-27.84986725,-26.66363131,-25.15910471,-23.37920892,-21.40031086,-19.30599835,-17.17758823,-15.07960608,-13.0667354,-11.17449486,-9.433877494,-7.870834705,-6.509074013,-5.352942023,0
-0.367826655,-0.416586669,-0.397638705,-0.387983493,-0.445007253,-0.588744435,-0.803244245,-1.044228217,-1.251851025,-1.371280231,-1.375027786,-1.269620935,-1.089878411,-0.88549099,-0.711268256,-0.605851589,-0.57678255,-0.60248059,-0.639633891,-0.627840797,-0.513066671,-0.276810695,0.058689781,0.428083862,0.73227857,0.87077573,0.784306482,0.471454851,0.001378335,-0.493302692,-0.853431595,-0.937947105,-0.660090848,-0.017201658,0.893806107,1.908882507,2.835352787,3.510546475,3.848759545,3.872908132,3.68280578,3.418352221,3.192648505,3.045635531,2.925922657,2.730590763,2.34382546,1.690692822,0.771326612,-0.339301873,-1.528840945,-2.677838258,-3.690204833,-4.522044144,-5.176906544,-5.683959948,-6.076291069,-6.375795897,-6.568311062,-6.619840075,-6.50820489,-6.27352325,-6.046544062,-6.05262713,-6.523781744,-7.53393254,-8.782538218,-9.442008511,-8.174207276,-3.438901124,5.914776747,19.93123713,36.98382427,53.68297176,65.47292232,67.84802279,57.80493431,35.04323067,2.407980767,-34.67464485,-69.60682308,-96.34439124,-110.887324,-112.0654224,-101.4331676,-82.43470099,-59.26651744,-35.81785078,-14.95826778,1.719462498,13.76944423,21.5684689,25.93440007,27.80174736,28.01470536,27.23296727,25.90845355,24.32813596,22.66967078,21.04045436,19.50493852,18.10136763,16.84106628,15.7090627,14.67925741,13.72720893,12.84347972,12.03842751,11.34084857,10.78382801,10.39281077,10.17431929,10.11294297,10.17839895,10.33474907,10.55136567,10.81122427,11.1162555,11.47512562,11.90256045,12.40597475,12.97806925,13.59221862,14.21524967,14.80535086,15.33107988,15.78261052,16.17319465,16.53011181,16.88561344,17.2534298,17.61182188,17.90686759,18.06284137,18.00975518,17.70481572,17.14558403,16.35414462,15.35426266,14.13339962,12.63135536,10.74452231,8.366900899,5.435024364,1.970217006,-1.909478388,-5.998325829,-10.05063956,-13.83117767,-17.15237152,-19.89605182,-22.01812914,-23.52626126,-24.45354258,-24.84620828,-24.75682048,-24.24587784,-23.3927261,-22.30012813,-21.07889852,-19.8202728,-18.5712104,-17.31982491,-16.00513116,-14.55262332,-12.92051172,-11.12921547,-9.260530169,-7.428592611,-5.730955398,-4.208729166,-2.827249689,-1.496946922,-0.114322352,1.383727399,0
